##NAMES=Zircon
##RRUFFID=R050286
##IDEAL CHEMISTRY=Zr^4+^SiO_4_
##LOCALITY=Renfrew County, Ontario, Canada
##OWNER=RRUFF
##SOURCE=Marcus Origlieri
##DESCRIPTION=Brownish red prismatic crystal frozen in matrix, associated with apatite
##STATUS=The identification of this mineral has been confirmed by X-ray diffraction and chemical analysis
##URL=rruff.info/R050286
##MEASURED CHEMISTRY=Zr_1.00_Si_1.00_O_4_; trace amounts of Hf
##PIN_ID=L01183
##ORIENTATION=Laser parallel to -c* (0 0 -1). Fiducial mark perpendicular to laser is parallel to -a [-1 0 0]
63.41100, 121.0000
64.65300, 115.0000
65.89600, 109.0000
67.13800, 122.0000
68.38000, 110.0000
69.62200, 110.0000
70.86300, 123.0000
72.10500, 116.0000
73.34600, 116.0000
74.58700, 120.0000
75.82800, 119.6863
77.06900, 123.0000
78.30900, 126.0000
79.55000, 143.0000
80.79000, 146.0000
82.03000, 167.0000
83.27000, 148.0000
84.51000, 149.0000
85.74900, 173.0000
86.98900, 179.0000
88.22800, 190.0000
89.46700, 202.0000
90.70600, 233.0000
91.94400, 297.0000
93.18300, 357.0000
94.42100, 385.0000
95.65900, 478.0000
96.89700, 534.0000
98.13500, 650.0000
99.37300, 755.0000
100.6100, 896.0000
101.8480, 1042.000
103.0850, 1201.000
104.3220, 1328.000
105.5590, 1565.000
106.7950, 1834.000
108.0320, 2014.000
109.2680, 2243.000
110.5040, 2383.000
111.7400, 2647.000
112.9760, 2861.000
114.2120, 3034.000
115.4470, 3297.000
116.6820, 3678.000
117.9170, 3924.000
119.1520, 3985.000
120.3870, 4058.810
121.6220, 4041.000
122.8560, 3985.000
124.0900, 4040.000
125.3240, 4118.000
126.5580, 4173.000
127.7920, 4227.306
129.0260, 4278.706
130.2590, 4326.782
131.4920, 4363.529
132.7250, 4409.000
133.9580, 4449.000
135.1910, 4445.000
136.4230, 4486.000
137.6560, 4506.000
138.8880, 4567.000
140.1200, 4667.000
141.3520, 4617.000
142.5830, 4675.000
143.8150, 4670.000
145.0460, 4672.000
146.2770, 4716.000
147.5080, 4648.000
148.7390, 4825.000
149.9700, 4802.000
151.2000, 4776.000
152.4310, 4834.000
153.6610, 4824.000
154.8910, 4812.000
156.1210, 4860.000
157.3500, 4830.000
158.5800, 4875.000
159.8090, 5099.000
161.0380, 5002.000
162.2670, 5048.000
163.4960, 5118.000
164.7240, 4967.000
165.9530, 5058.000
167.1810, 4993.000
168.4090, 5045.000
169.6370, 5056.000
170.8650, 5049.061
172.0920, 5039.000
173.3200, 5081.000
174.5470, 4996.000
175.7740, 5032.000
177.0010, 5117.000
178.2280, 5058.000
179.4540, 5077.000
180.6810, 5073.000
181.9070, 5023.000
183.1330, 5032.000
184.3590, 5132.000
185.5850, 5162.000
186.8100, 5182.000
188.0350, 5212.000
189.2610, 5270.190
190.4860, 5374.000
191.7110, 5436.000
192.9350, 5565.000
194.1600, 5737.000
195.3840, 5715.000
196.6080, 6003.000
197.8320, 6084.000
199.0560, 6294.000
200.2800, 6507.000
201.5030, 6708.000
202.7270, 6933.000
203.9500, 7312.000
205.1730, 7648.000
206.3950, 7919.000
207.6180, 8204.000
208.8410, 8605.000
210.0630, 8702.000
211.2850, 8854.000
212.5070, 8932.000
213.7290, 8820.000
214.9500, 8675.000
216.1720, 8262.000
217.3930, 7866.000
218.6140, 7512.000
219.8350, 7222.000
221.0560, 6960.234
222.2770, 6737.694
223.4970, 6582.842
224.7170, 6467.000
225.9370, 6388.000
227.1570, 6273.000
228.3770, 6128.000
229.5970, 5980.000
230.8160, 5874.000
232.0350, 5792.000
233.2540, 5730.000
234.4730, 5725.000
235.6920, 5675.000
236.9110, 5677.000
238.1290, 5554.000
239.3470, 5486.000
240.5650, 5579.000
241.7830, 5468.000
243.0010, 5451.000
244.2180, 5392.000
245.4360, 5338.000
246.6530, 5379.000
247.8700, 5387.000
249.0870, 5403.000
250.3040, 5412.013
251.5200, 5328.000
252.7370, 5396.000
253.9530, 5350.000
255.1690, 5299.000
256.3850, 5347.000
257.6000, 5317.000
258.8160, 5311.000
260.0310, 5302.000
261.2460, 5339.000
262.4610, 5396.000
263.6760, 5363.000
264.8910, 5393.964
266.1050, 5367.331
267.3200, 5465.000
268.5340, 5274.000
269.7480, 5441.000
270.9620, 5349.000
272.1750, 5455.000
273.3890, 5451.000
274.6020, 5441.000
275.8150, 5400.000
277.0280, 5464.000
278.2410, 5322.000
279.4540, 5515.000
280.6660, 5418.000
281.8790, 5441.000
283.0910, 5478.000
284.3030, 5405.000
285.5140, 5463.000
286.7260, 5454.000
287.9380, 5397.000
289.1490, 5401.000
290.3600, 5397.000
291.5710, 5428.000
292.7820, 5538.000
293.9920, 5383.000
295.2030, 5459.000
296.4130, 5510.000
297.6230, 5450.000
298.8330, 5511.000
300.0430, 5481.000
301.2520, 5622.000
302.4620, 5583.000
303.6710, 5607.000
304.8800, 5611.000
306.0890, 5594.000
307.2980, 5609.517
308.5070, 5681.000
309.7150, 5647.000
310.9230, 5648.000
312.1310, 5736.000
313.3390, 5742.000
314.5470, 5756.000
315.7550, 5749.000
316.9620, 5766.000
318.1690, 5713.000
319.3760, 5854.000
320.5830, 5813.000
321.7900, 5900.000
322.9960, 5816.000
324.2030, 5878.000
325.4090, 5726.000
326.6150, 5885.000
327.8210, 5858.000
329.0270, 5835.000
330.2320, 5835.000
331.4380, 5844.915
332.6430, 5930.000
333.8480, 5906.000
335.0530, 6050.000
336.2580, 6119.000
337.4620, 6140.540
338.6670, 6145.000
339.8710, 6179.000
341.0750, 6252.000
342.2790, 6210.000
343.4820, 6407.000
344.6860, 6495.000
345.8890, 6732.000
347.0920, 6958.000
348.2960, 7109.263
349.4980, 7270.000
350.7010, 7484.000
351.9040, 7573.000
353.1060, 7758.000
354.3080, 7754.000
355.5100, 7806.000
356.7120, 7745.000
357.9140, 7627.000
359.1150, 7477.000
360.3170, 7120.803
361.5180, 7042.441
362.7190, 6942.733
363.9200, 6823.797
365.1200, 6573.732
366.3210, 6534.627
367.5210, 6436.443
368.7210, 6353.222
369.9210, 6395.764
371.1210, 6457.000
372.3210, 6539.000
373.5200, 6427.000
374.7200, 6387.000
375.9190, 6493.000
377.1180, 6425.000
378.3170, 6541.000
379.5150, 6613.000
380.7140, 6699.000
381.9120, 6810.000
383.1110, 6782.000
384.3090, 6812.000
385.5060, 6821.000
386.7040, 6935.000
387.9020, 7068.000
389.0990, 7143.000
390.2960, 7135.000
391.4930, 7131.000
392.6900, 6992.000
393.8860, 7021.000
395.0830, 7063.000
396.2790, 6826.000
397.4750, 6858.000
398.6710, 6858.000
399.8670, 6771.000
401.0630, 6807.000
402.2580, 6772.000
403.4540, 6756.000
404.6490, 6800.000
405.8440, 6794.000
407.0390, 6847.000
408.2330, 6820.000
409.4280, 6923.000
410.6220, 7011.000
411.8160, 7053.000
413.0100, 7163.000
414.2040, 7299.000
415.3980, 7387.406
416.5910, 7563.000
417.7850, 7664.000
418.9780, 7896.000
420.1710, 8131.000
421.3640, 8399.000
422.5560, 8741.000
423.7490, 9171.000
424.9410, 9678.000
426.1330, 10214.00
427.3250, 10971.00
428.5170, 11892.00
429.7090, 12803.00
430.9000, 14011.00
432.0910, 15070.00
433.2820, 16246.00
434.4730, 17455.00
435.6640, 18250.00
436.8550, 19409.00
438.0450, 19421.00
439.2360, 19272.00
440.4260, 18782.00
441.6160, 17848.00
442.8060, 16760.00
443.9950, 15269.00
445.1850, 14664.00
446.3740, 12840.00
447.5630, 11922.00
448.7520, 11429.00
449.9410, 10301.00
451.1300, 9804.000
452.3180, 9393.000
453.5060, 9098.000
454.6950, 8552.000
455.8830, 8458.000
457.0700, 8267.000
458.2580, 8221.000
459.4450, 7961.000
460.6330, 7825.000
461.8200, 7865.000
463.0070, 7737.000
464.1940, 7595.000
465.3800, 7482.000
466.5670, 7387.607
467.7530, 7323.966
468.9390, 7276.000
470.1250, 7245.000
471.3110, 7307.000
472.4970, 7282.000
473.6820, 7243.000
474.8680, 7157.000
476.0530, 7135.000
477.2380, 7110.000
478.4230, 7077.946
479.6070, 7018.000
480.7920, 7061.000
481.9760, 7009.000
483.1600, 7017.058
484.3440, 6911.000
485.5280, 6958.000
486.7120, 6942.000
487.8950, 6899.000
489.0780, 6922.000
490.2620, 6903.000
491.4450, 6845.000
492.6270, 6863.000
493.8100, 6837.000
494.9920, 6806.000
496.1750, 6853.000
497.3570, 6801.000
498.5390, 6866.000
499.7210, 6932.000
500.9020, 6771.000
502.0840, 6873.000
503.2650, 6889.000
504.4460, 6892.000
505.6270, 6988.000
506.8080, 6981.481
507.9890, 6907.000
509.1690, 6953.000
510.3500, 6999.000
511.5300, 6830.000
512.7100, 6862.000
513.8900, 6862.000
515.0690, 6955.000
516.2490, 7000.000
517.4280, 6901.000
518.6070, 6900.000
519.7860, 6936.000
520.9650, 6899.000
522.1440, 6933.000
523.3220, 7023.000
524.5010, 7098.000
525.6790, 6959.000
526.8570, 6942.000
528.0350, 7080.000
529.2130, 6917.000
530.3900, 6943.000
531.5670, 6977.000
532.7450, 6880.000
533.9220, 7064.000
535.0980, 6957.000
536.2750, 6876.000
537.4520, 6912.000
538.6280, 7002.000
539.8040, 6881.000
540.9800, 6829.000
542.1560, 6949.000
543.3320, 6926.000
544.5070, 6874.000
545.6830, 6914.774
546.8580, 6928.000
548.0330, 6897.000
549.2080, 6971.000
550.3830, 6972.000
551.5570, 6934.000
552.7310, 6834.000
553.9060, 6951.000
555.0800, 6871.000
556.2540, 6934.000
557.4270, 6905.000
558.6010, 6894.000
559.7740, 6820.000
560.9470, 6946.000
562.1210, 6893.000
563.2930, 6841.000
564.4660, 6890.000
565.6390, 6840.000
566.8110, 6851.000
567.9830, 6891.000
569.1550, 6931.000
570.3270, 6992.000
571.4990, 6928.545
572.6710, 6954.000
573.8420, 6824.000
575.0130, 6867.077
576.1840, 6882.349
577.3550, 6914.000
578.5260, 6963.000
579.6970, 7015.000
580.8670, 7032.000
582.0370, 7002.000
583.2070, 7057.000
584.3770, 7007.000
585.5470, 7009.000
586.7170, 6919.000
587.8860, 6894.000
589.0550, 6914.112
590.2240, 6893.500
591.3930, 6945.000
592.5620, 6936.000
593.7310, 6897.000
594.8990, 6926.000
596.0670, 6910.686
597.2350, 6960.000
598.4030, 6926.000
599.5710, 6926.000
600.7390, 6954.000
601.9060, 7073.000
603.0740, 6916.000
604.2410, 6885.000
605.4080, 7043.000
606.5740, 6888.000
607.7410, 7117.000
608.9080, 6924.000
610.0740, 7008.000
611.2400, 7027.000
612.4060, 7056.000
613.5720, 7197.000
614.7370, 7143.000
615.9030, 7130.000
617.0680, 7038.000
618.2330, 7127.000
619.3980, 7122.000
620.5630, 7213.000
621.7280, 7203.116
622.8920, 7133.000
624.0570, 7163.000
625.2210, 7239.000
626.3850, 7167.000
627.5490, 7217.000
628.7120, 7286.000
629.8760, 7195.000
631.0390, 7323.000
632.2020, 7451.000
633.3650, 7477.000
634.5280, 7446.000
635.6910, 7395.000
636.8530, 7494.000
638.0160, 7417.000
639.1780, 7602.000
640.3400, 7609.000
641.5020, 7496.000
642.6640, 7565.000
643.8250, 7588.000
644.9870, 7489.000
646.1480, 7566.000
647.3090, 7468.000
648.4700, 7462.000
649.6300, 7408.000
650.7910, 7539.000
651.9510, 7492.000
653.1120, 7441.000
654.2720, 7487.000
655.4320, 7412.000
656.5910, 7398.000
657.7510, 7473.000
658.9100, 7502.000
660.0690, 7496.000
661.2290, 7392.000
662.3880, 7602.000
663.5460, 7366.000
664.7050, 7353.000
665.8630, 7484.000
667.0220, 7468.000
668.1800, 7484.000
669.3380, 7470.000
670.4950, 7624.000
671.6530, 7403.000
672.8100, 7519.000
673.9680, 7397.000
675.1250, 7451.000
676.2820, 7467.000
677.4390, 7389.000
678.5950, 7375.000
679.7520, 7367.414
680.9080, 7359.000
682.0640, 7351.000
683.2200, 7431.000
684.3760, 7422.000
685.5320, 7327.000
686.6870, 7262.000
687.8420, 7393.000
688.9980, 7473.000
690.1530, 7377.000
691.3070, 7269.000
692.4620, 7332.000
693.6170, 7335.000
694.7710, 7550.000
695.9250, 7312.000
697.0790, 7420.000
698.2330, 7390.000
699.3870, 7357.000
700.5400, 7361.000
701.6940, 7474.000
702.8470, 7487.000
704.0000, 7416.000
705.1530, 7560.000
706.3050, 7464.000
707.4580, 7375.000
708.6100, 7456.000
709.7630, 7495.000
710.9150, 7509.000
712.0660, 7504.000
713.2180, 7458.000
714.3700, 7545.000
715.5210, 7430.000
716.6720, 7515.000
717.8240, 7535.000
718.9740, 7542.000
720.1250, 7576.113
721.2760, 7518.000
722.4260, 7584.000
723.5770, 7505.000
724.7270, 7478.000
725.8770, 7537.000
727.0260, 7533.000
728.1760, 7540.000
729.3250, 7588.000
730.4750, 7515.000
731.6240, 7629.000
732.7730, 7449.000
733.9220, 7584.000
735.0700, 7550.000
736.2190, 7557.000
737.3670, 7596.954
738.5150, 7645.000
739.6630, 7643.000
740.8110, 7560.000
741.9590, 7639.000
743.1060, 7593.000
744.2540, 7588.000
745.4010, 7678.000
746.5480, 7596.000
747.6950, 7575.000
748.8410, 7711.000
749.9880, 7648.000
751.1340, 7680.000
752.2800, 7637.000
753.4260, 7721.000
754.5720, 7668.000
755.7180, 7592.000
756.8640, 7691.000
758.0090, 7747.000
759.1540, 7602.000
760.2990, 7678.000
761.4440, 7784.000
762.5890, 7716.000
763.7340, 7755.000
764.8780, 7731.000
766.0220, 7730.000
767.1660, 7639.000
768.3100, 7803.000
769.4540, 7749.000
770.5980, 7756.000
771.7410, 7659.000
772.8840, 7841.000
774.0280, 7835.000
775.1700, 7851.000
776.3130, 7821.000
777.4560, 7781.000
778.5980, 7863.000
779.7410, 7828.000
780.8830, 7777.000
782.0250, 7875.000
783.1670, 7848.000
784.3080, 7901.000
785.4500, 7855.000
786.5910, 7922.000
787.7320, 8038.000
788.8730, 7976.000
790.0140, 7911.000
791.1550, 7941.000
792.2950, 7869.000
793.4360, 7891.000
794.5760, 7907.000
795.7160, 8049.000
796.8560, 8031.000
797.9960, 8030.000
799.1350, 7989.000
800.2750, 8000.000
801.4140, 7973.000
802.5530, 7980.000
803.6920, 7939.000
804.8310, 8053.000
805.9690, 8014.000
807.1080, 7869.000
808.2460, 8083.000
809.3840, 7959.000
810.5220, 7968.000
811.6600, 8036.000
812.7970, 8058.000
813.9350, 8069.000
815.0720, 8102.000
816.2090, 8029.000
817.3460, 8089.000
818.4830, 8151.000
819.6200, 8236.000
820.7560, 8139.000
821.8930, 8051.000
823.0290, 8147.000
824.1650, 8171.000
825.3010, 8202.000
826.4360, 8226.000
827.5720, 8227.000
828.7070, 8287.000
829.8420, 8330.200
830.9770, 8313.000
832.1120, 8412.000
833.2470, 8386.000
834.3820, 8326.000
835.5160, 8338.000
836.6500, 8521.000
837.7840, 8509.000
838.9180, 8561.000
840.0520, 8488.000
841.1860, 8518.000
842.3190, 8426.000
843.4520, 8402.000
844.5850, 8380.443
845.7180, 8431.000
846.8510, 8311.000
847.9840, 8341.000
849.1160, 8283.000
850.2490, 8374.000
851.3810, 8334.000
852.5130, 8440.000
853.6450, 8406.000
854.7760, 8414.000
855.9080, 8418.000
857.0390, 8682.000
858.1700, 8496.000
859.3010, 8673.000
860.4320, 8510.000
861.5630, 8653.000
862.6930, 8732.000
863.8240, 8751.000
864.9540, 8867.000
866.0840, 8947.000
867.2140, 8977.000
868.3440, 9032.000
869.4730, 9049.000
870.6030, 9129.000
871.7320, 9036.000
872.8610, 9123.000
873.9900, 9053.000
875.1190, 9060.000
876.2470, 9192.000
877.3760, 9151.000
878.5040, 9096.000
879.6320, 9148.000
880.7600, 9120.000
881.8880, 9109.099
883.0150, 9152.000
884.1430, 9103.000
885.2700, 9165.000
886.3970, 9210.000
887.5240, 9117.000
888.6510, 9057.000
889.7780, 9220.000
890.9040, 9051.000
892.0310, 9081.000
893.1570, 9046.000
894.2830, 8978.000
895.4090, 9105.000
896.5350, 8984.000
897.6600, 9143.000
898.7860, 9137.000
899.9110, 9137.000
901.0360, 9244.000
902.1610, 9268.000
903.2860, 9229.000
904.4100, 9184.000
905.5350, 9247.000
906.6590, 9119.000
907.7830, 9172.000
908.9070, 9382.000
910.0310, 9425.000
911.1540, 9325.000
912.2780, 9248.000
913.4010, 9211.000
914.5240, 9416.000
915.6470, 9423.000
916.7700, 9387.000
917.8930, 9378.000
919.0150, 9424.000
920.1380, 9390.000
921.2600, 9502.000
922.3820, 9485.000
923.5040, 9587.000
924.6260, 9568.000
925.7470, 9539.031
926.8690, 9581.000
927.9900, 9446.000
929.1110, 9559.000
930.2320, 9544.000
931.3530, 9650.000
932.4730, 9567.000
933.5940, 9577.000
934.7140, 9511.000
935.8340, 9684.000
936.9540, 9635.000
938.0740, 9622.000
939.1930, 9568.000
940.3130, 9766.000
941.4320, 9714.000
942.5510, 9725.000
943.6700, 9748.000
944.7890, 9744.000
945.9080, 9802.000
947.0260, 9786.000
948.1450, 9793.000
949.2630, 9907.000
950.3810, 9842.000
951.4990, 10116.00
952.6170, 10018.00
953.7340, 9974.000
954.8520, 10151.00
955.9690, 10316.00
957.0860, 10270.00
958.2030, 10341.00
959.3200, 10429.00
960.4360, 10559.00
961.5530, 10727.00
962.6690, 10904.00
963.7850, 11367.00
964.9010, 11834.00
966.0170, 12281.00
967.1330, 13018.00
968.2480, 13964.00
969.3630, 14742.00
970.4790, 15533.00
971.5940, 16254.00
972.7080, 16548.00
973.8230, 15891.00
974.9380, 15295.00
976.0520, 14428.00
977.1660, 13987.00
978.2800, 13207.00
979.3940, 12770.00
980.5080, 12578.00
981.6220, 12237.00
982.7350, 12308.00
983.8480, 12365.00
984.9610, 12336.00
986.0740, 12500.00
987.1870, 12564.00
988.3000, 12751.00
989.4120, 13296.00
990.5250, 13587.00
991.6370, 14347.00
992.7490, 15112.00
993.8610, 16161.00
994.9720, 17626.00
996.0840, 19554.00
997.1950, 22407.00
998.3060, 26305.00
999.4170, 30913.00
1000.528, 36708.00
1001.639, 42939.00
1002.750, 49736.00
1003.860, 55551.00
1004.970, 58312.00
1006.080, 57804.00
1007.190, 52744.00
1008.300, 46030.00
1009.410, 38664.00
1010.519, 32147.00
1011.628, 27155.00
1012.738, 23490.00
1013.846, 20626.00
1014.955, 18796.00
1016.064, 16957.00
1017.172, 16070.00
1018.281, 15138.00
1019.389, 14332.00
1020.497, 13671.00
1021.605, 13215.00
1022.713, 12836.00
1023.820, 12409.00
1024.928, 11945.00
1026.035, 11738.00
1027.142, 11635.00
1028.249, 11299.00
1029.356, 11283.00
1030.462, 11058.00
1031.569, 11108.00
1032.675, 10954.00
1033.781, 10836.00
1034.887, 10724.00
1035.993, 10641.65
1037.098, 10599.00
1038.204, 10538.00
1039.309, 10561.00
1040.415, 10567.00
1041.520, 10389.00
1042.624, 10455.00
1043.729, 10407.00
1044.834, 10459.00
1045.938, 10459.00
1047.042, 10389.00
1048.146, 10321.00
1049.250, 10356.00
1050.354, 10295.00
1051.458, 10432.00
1052.561, 10319.00
1053.664, 10375.00
1054.767, 10396.00
1055.870, 10316.00
1056.973, 10239.00
1058.076, 10368.00
1059.178, 10367.00
1060.281, 10282.00
1061.383, 10331.00
1062.485, 10324.00
1063.587, 10247.00
1064.688, 10134.00
1065.790, 10211.97
1066.891, 10390.00
1067.993, 10303.00
1069.094, 10346.00
1070.195, 10324.00
1071.295, 10206.00
1072.396, 10291.00
1073.496, 10223.00
1074.597, 10437.00
1075.697, 10203.00
1076.797, 10397.00
1077.897, 10209.00
1078.996, 10458.00
1080.096, 10346.00
1081.195, 10387.00
1082.294, 10336.00
1083.393, 10371.00
1084.492, 10553.00
1085.591, 10567.00
1086.689, 10597.00
1087.788, 10575.00
1088.886, 10616.44
1089.984, 10705.00
1091.082, 10619.00
1092.180, 10629.00
1093.277, 10510.00
1094.375, 10604.00
1095.472, 10463.00
1096.569, 10352.00
1097.666, 10568.00
1098.763, 10500.00
1099.860, 10486.00
1100.956, 10517.00
1102.053, 10484.00
1103.149, 10527.28
1104.245, 10590.00
1105.341, 10586.00
1106.436, 10655.00
1107.532, 10658.00
1108.627, 10527.00
1109.723, 10666.00
1110.818, 10701.00
1111.913, 10520.00
1113.007, 10692.00
1114.102, 10516.00
1115.197, 10508.00
1116.291, 10548.00
1117.385, 10401.00
1118.479, 10563.00
1119.573, 10484.00
1120.666, 10373.00
1121.760, 10448.00
1122.853, 10438.00
1123.947, 10516.00
1125.040, 10463.00
1126.132, 10438.00
1127.225, 10323.00
1128.318, 10346.00
1129.410, 10426.00
1130.502, 10421.00
1131.595, 10538.00
1132.687, 10499.00
1133.778, 10534.00
1134.870, 10409.00
1135.961, 10589.00
1137.053, 10510.00
1138.144, 10561.00
1139.235, 10594.00
1140.326, 10654.00
1141.416, 10640.00
1142.507, 10535.00
1143.597, 10615.00
1144.688, 10611.00
1145.778, 10705.00
1146.868, 10631.00
1147.957, 10515.00
1149.047, 10596.00
1150.136, 10689.00
1151.226, 10557.00
1152.315, 10648.00
1153.404, 10609.00
1154.493, 10584.00
1155.581, 10643.00
1156.670, 10612.00
1157.758, 10632.00
1158.846, 10686.00
1159.934, 10681.00
1161.022, 10593.00
1162.110, 10552.00
1163.198, 10541.00
1164.285, 10562.00
1165.372, 10547.00
1166.459, 10509.00
1167.546, 10645.00
1168.633, 10492.11
1169.720, 10590.33
1170.806, 10649.04
1171.892, 10670.35
1172.979, 10542.28
1174.065, 10607.11
1175.150, 10594.63
1176.236, 10578.98
1177.322, 10670.95
1178.407, 10564.60
1179.492, 10654.86
1180.577, 10666.64
1181.662, 10714.34
1182.747, 10684.26
1183.832, 10678.20
1184.916, 10749.94
1186.000, 10778.59
1187.084, 10739.55
1188.168, 10789.52
1189.252, 10680.45
1190.336, 10710.94
1191.419, 10801.64
1192.503, 10766.51
1193.586, 10817.90
1194.669, 10836.33
1195.752, 10704.99
1196.835, 10834.12
1197.917, 10850.60
1199.000, 10751.42
1200.082, 10871.62
1201.164, 10788.38
1202.246, 10777.76
1203.328, 10821.78
1204.409, 10808.83
1205.491, 10885.70
1206.572, 10876.04
1207.653, 10858.65
1208.734, 10874.99
1209.815, 10795.74
1210.896, 10893.84
1211.976, 10870.79
1213.057, 10907.96
1214.137, 10958.77
1215.217, 10905.07
1216.297, 10883.00
1217.377, 10837.00
1218.456, 10892.00
1219.536, 11030.00
1220.615, 10754.00
1221.694, 11025.00
1222.773, 10940.00
1223.852, 11067.00
1224.931, 10987.00
1226.009, 11179.00
1227.088, 11045.00
1228.166, 10959.00
1229.244, 11139.00
1230.322, 10930.00
1231.400, 11012.00
1232.477, 11025.00
1233.555, 10980.00
1234.632, 11023.00
1235.709, 11033.79
1236.786, 11046.00
1237.863, 11108.44
1238.939, 11110.47
1240.016, 11172.00
1241.092, 11062.00
1242.168, 11209.00
1243.245, 11085.00
1244.320, 11113.00
1245.396, 11058.00
1246.472, 11135.00
1247.547, 11153.00
1248.622, 11165.10
1249.697, 11173.42
1250.772, 11230.00
1251.847, 11175.00
1252.922, 11228.00
1253.996, 11301.00
1255.071, 11364.00
1256.145, 11239.00
1257.219, 11258.00
1258.293, 11277.00
1259.366, 11308.00
1260.440, 11381.00
1261.513, 11319.00
1262.587, 11291.00
1263.660, 11235.00
1264.733, 11438.00
1265.805, 11461.00
1266.878, 11338.00
1267.951, 11495.00
1269.023, 11488.00
1270.095, 11499.00
1271.167, 11384.00
1272.239, 11417.00
1273.311, 11442.00
1274.382, 11367.00
1275.454, 11411.22
1276.525, 11355.00
1277.596, 11395.00
1278.667, 11470.00
1279.738, 11403.00
1280.808, 11480.00
1281.879, 11502.00
1282.949, 11458.00
1284.019, 11423.00
1285.089, 11364.00
1286.159, 11467.00
1287.229, 11337.00
1288.298, 11515.00
1289.368, 11462.00
1290.437, 11472.00
1291.506, 11415.00
1292.575, 11520.00
1293.644, 11478.00
1294.712, 11631.00
1295.781, 11415.00
1296.849, 11524.00
1297.917, 11496.00
1298.985, 11485.00
1300.053, 11561.00
1301.121, 11526.00
1302.188, 11659.00
1303.255, 11557.00
1304.323, 11590.00
1305.390, 11681.00
1306.457, 11532.00
1307.523, 11527.00
1308.590, 11706.00
1309.656, 11535.00
1310.723, 11768.00
1311.789, 11669.00
1312.855, 11656.00
1313.921, 11528.00
1314.986, 11672.00
1316.052, 11664.00
1317.117, 11571.00
1318.182, 11685.00
1319.248, 11535.00
1320.312, 11601.00
1321.377, 11760.00
1322.442, 11734.00
1323.506, 11684.00
1324.571, 11667.00
1325.635, 11820.00
1326.699, 11747.00
1327.762, 11791.00
1328.826, 11756.00
1329.890, 11788.00
1330.953, 11763.00
1332.016, 11796.19
1333.079, 11879.00
1334.142, 11880.00
1335.205, 11912.00
1336.268, 11985.00
1337.330, 11934.00
1338.392, 11895.00
1339.454, 11866.00
1340.516, 11961.00
1341.578, 12009.00
1342.640, 11972.00
1343.701, 11967.00
1344.763, 11974.00
1345.824, 12034.00
1346.885, 12036.00
1347.946, 11937.00
1349.007, 12135.00
1350.067, 12116.00
1351.128, 11992.00
1352.188, 12119.00
1353.248, 12106.00
1354.308, 12160.00
1355.368, 12127.00
1356.428, 12046.00
1357.487, 12009.00
1358.547, 12070.00
1359.606, 12049.00
1360.665, 12099.00
1361.724, 12000.00
1362.783, 12275.00
1363.841, 11985.00
1364.900, 12188.00
1365.958, 12030.00
1367.016, 12096.00
1368.074, 12125.00
1369.132, 12139.00
1370.190, 12088.00
1371.247, 12130.00
1372.304, 12036.00
1373.362, 12057.03
1374.419, 12200.00
1375.476, 12129.00
1376.532, 12091.00
1377.589, 12282.00
1378.645, 12206.00
1379.702, 12171.00
1380.758, 12189.00
1381.814, 12125.00
1382.870, 12308.00
1383.925, 12115.00
1384.981, 12243.00
1386.036, 12137.00
1387.092, 12286.00
1388.147, 12276.00
1389.202, 12354.00
1390.256, 12346.00
1391.311, 12317.16
1392.365, 12349.34
1393.420, 12210.00
1394.474, 12343.00
1395.528, 12267.00
1396.582, 12240.00
1397.636, 12303.00
1398.689, 12324.00
1399.742, 12414.00
1400.796, 12374.84
1401.849, 12331.00
1402.902, 12296.00
1403.955, 12360.00
1405.007, 12311.00
1406.060, 12389.00
1407.112, 12495.00
1408.164, 12402.00
1409.216, 12409.00
1410.268, 12588.00
1411.320, 12572.00
1412.371, 12554.00
1413.423, 12545.00
1414.474, 12523.00
1415.525, 12503.00
1416.576, 12510.00
1417.627, 12475.00
1418.678, 12545.00
1419.728, 12570.00
1420.778, 12720.00
1421.829, 12502.00
1422.879, 12624.00
1423.928, 12681.00
1424.978, 12587.14
1426.028, 12623.00
1427.077, 12552.00
1428.126, 12724.00
1429.176, 12785.00
1430.225, 12699.00
1431.273, 12778.00
1432.322, 12803.00
1433.371, 12667.00
1434.419, 12535.00
1435.467, 12681.00
1436.515, 12775.00
1437.563, 12648.00
1438.611, 12802.00
1439.658, 12828.00
1440.706, 12828.62
1441.753, 12984.00
1442.800, 12905.00
1443.847, 12827.00
1444.894, 12902.00
1445.941, 12954.00
1446.987, 13035.00
1448.034, 13052.00
1449.080, 12940.00
1450.126, 13009.00
1451.172, 12977.00
1452.218, 13068.00
1453.263, 13045.00
1454.309, 13095.00
1455.354, 12927.00
1456.399, 12987.00
1457.444, 12988.10
1458.489, 12978.00
1459.534, 13104.00
1460.579, 13060.00
1461.623, 13213.00
1462.667, 13246.00
1463.711, 13064.00
1464.755, 13145.00
1465.799, 13274.00
1466.843, 13013.00
1467.886, 13065.00
1468.930, 13113.00
1469.973, 13097.00
1471.016, 13095.00
1472.059, 13105.99
1473.101, 13146.00
1474.144, 13102.00
1475.186, 13184.00
1476.229, 13188.00
1477.271, 13180.86
1478.313, 13112.00
1479.355, 13181.00
1480.396, 13155.00
1481.438, 13176.24
1482.479, 13129.00
1483.520, 13126.00
1484.561, 13137.00
1485.602, 13072.00
1486.643, 13343.00
1487.684, 13335.00
1488.724, 13199.00
1489.765, 13273.00
1490.805, 13149.00
1491.845, 13270.00
1492.885, 13218.00
1493.924, 13191.00
1494.964, 13318.00
1496.003, 13334.00
1497.042, 13306.00
1498.082, 13147.00
1499.120, 13308.00
1500.159, 13304.78
1501.198, 13301.00
1502.236, 13433.00
1503.275, 13289.00
1504.313, 13217.00
1505.351, 13219.00
1506.389, 13419.00
1507.427, 13443.00
1508.464, 13488.00
1509.502, 13457.00
1510.539, 13350.00
1511.576, 13562.00
1512.613, 13502.00
1513.650, 13535.00
1514.687, 13386.00
1515.723, 13405.00
1516.759, 13432.00
1517.796, 13376.53
1518.832, 13449.00
1519.868, 13376.00
1520.903, 13441.00
1521.939, 13471.00
1522.975, 13366.00
1524.010, 13488.00
1525.045, 13535.00
1526.080, 13399.00
1527.115, 13449.00
1528.150, 13398.00
1529.184, 13431.00
1530.219, 13576.00
1531.253, 13394.00
1532.287, 13378.00
1533.321, 13586.00
1534.355, 13337.00
1535.388, 13568.00
1536.422, 13549.00
1537.455, 13490.00
1538.488, 13440.00
1539.522, 13439.12
1540.554, 13451.00
1541.587, 13426.00
1542.620, 13477.00
1543.652, 13462.00
1544.685, 13427.00
1545.717, 13517.00
1546.749, 13472.00
1547.781, 13317.00
1548.812, 13544.00
1549.844, 13475.00
1550.875, 13626.00
1551.906, 13483.00
1552.938, 13637.00
1553.968, 13469.00
1554.999, 13448.00
1556.030, 13397.00
1557.060, 13341.00
1558.091, 13362.41
1559.121, 13408.65
1560.151, 13381.00
1561.181, 13543.00
1562.211, 13524.00
1563.240, 13501.00
1564.270, 13624.00
1565.299, 13491.00
1566.328, 13345.00
1567.357, 13656.00
1568.386, 13570.00
1569.415, 13616.00
1570.443, 13577.00
1571.472, 13635.00
1572.500, 13619.98
1573.528, 13715.00
1574.556, 13612.00
1575.584, 13586.00
1576.611, 13582.00
1577.639, 13665.00
1578.666, 13759.00
1579.693, 13593.00
##END=



