##NAMES=Zircon
##RRUFFID=R050488
##IDEAL CHEMISTRY=Zr^4+^SiO_4_
##LOCALITY=Sigulani Village, Tambani Area, Blantyre District, Nyassaland
##OWNER=RRUFF
##SOURCE=California Institute of Technology
##DESCRIPTION=Brown fragment
##STATUS=The identification of this mineral has been confirmed by X-ray diffraction and chemical analysis
##URL=rruff.info/R050488
##MEASURED CHEMISTRY=(Zr_0.99_Hf_0.01_)_Î£=1_Si_1.00_O_4_
##PIN_ID=L00554
##ORIENTATION=Laser parallel to c* (0 0 1). Fiducial mark perpendicular to laser is parallel to a [1 0 0]
63.41100, 84.00000
64.65300, 85.00000
65.89600, 87.00000
67.13800, 85.00000
68.38000, 83.00000
69.62200, 71.00000
70.86300, 89.00000
72.10500, 77.00000
73.34600, 81.00000
74.58700, 92.00000
75.82800, 83.00000
77.06900, 86.00000
78.30900, 88.00000
79.55000, 89.00000
80.79000, 87.00000
82.03000, 96.00000
83.27000, 90.00000
84.51000, 118.0000
85.74900, 118.0000
86.98900, 125.0000
88.22800, 123.0000
89.46700, 145.0000
90.70600, 179.0000
91.94400, 177.0000
93.18300, 191.0000
94.42100, 246.0000
95.65900, 270.0000
96.89700, 329.0000
98.13500, 384.0000
99.37300, 468.0000
100.6100, 558.0000
101.8480, 625.0000
103.0850, 714.0000
104.3220, 884.0000
105.5590, 943.0000
106.7950, 1108.000
108.0320, 1251.000
109.2680, 1383.000
110.5040, 1533.000
111.7400, 1677.000
112.9760, 1772.000
114.2120, 1879.000
115.4470, 2043.000
116.6820, 2285.000
117.9170, 2404.000
119.1520, 2484.000
120.3870, 2448.000
121.6220, 2571.000
122.8560, 2642.000
124.0900, 2662.000
125.3240, 2704.000
126.5580, 2823.000
127.7920, 2917.000
129.0260, 3002.000
130.2590, 2979.000
131.4920, 3087.000
132.7250, 3099.000
133.9580, 3182.000
135.1910, 3135.000
136.4230, 3240.000
137.6560, 3233.000
138.8880, 3286.000
140.1200, 3256.000
141.3520, 3374.000
142.5830, 3305.000
143.8150, 3294.000
145.0460, 3362.000
146.2770, 3406.000
147.5080, 3420.000
148.7390, 3494.000
149.9700, 3507.126
151.2000, 3507.581
152.4310, 3552.000
153.6610, 3500.000
154.8910, 3504.000
156.1210, 3534.000
157.3500, 3540.000
158.5800, 3570.000
159.8090, 3600.000
161.0380, 3653.000
162.2670, 3591.000
163.4960, 3685.000
164.7240, 3637.000
165.9530, 3604.000
167.1810, 3595.000
168.4090, 3612.000
169.6370, 3672.000
170.8650, 3683.000
172.0920, 3634.000
173.3200, 3617.000
174.5470, 3698.000
175.7740, 3711.000
177.0010, 3726.000
178.2280, 3799.000
179.4540, 3760.615
180.6810, 3752.198
181.9070, 3727.000
183.1330, 3695.000
184.3590, 3704.000
185.5850, 3731.000
186.8100, 3826.000
188.0350, 3714.000
189.2610, 3832.000
190.4860, 3837.208
191.7110, 3990.000
192.9350, 3906.000
194.1600, 3932.000
195.3840, 3958.000
196.6080, 3882.000
197.8320, 4064.000
199.0560, 4073.000
200.2800, 4186.000
201.5030, 4262.000
202.7270, 4253.000
203.9500, 4335.000
205.1730, 4397.000
206.3950, 4420.000
207.6180, 4383.000
208.8410, 4384.000
210.0630, 4340.000
211.2850, 4328.000
212.5070, 4377.000
213.7290, 4481.000
214.9500, 4690.000
216.1720, 4718.000
217.3930, 4639.000
218.6140, 4742.000
219.8350, 4696.000
221.0560, 4643.000
222.2770, 4681.000
223.4970, 4649.000
224.7170, 4707.000
225.9370, 4773.000
227.1570, 4834.000
228.3770, 4705.000
229.5970, 4647.000
230.8160, 4562.000
232.0350, 4327.000
233.2540, 4235.000
234.4730, 4167.000
235.6920, 4109.000
236.9110, 4065.000
238.1290, 4069.000
239.3470, 4027.000
240.5650, 4049.000
241.7830, 4026.000
243.0010, 4087.000
244.2180, 4049.000
245.4360, 4151.000
246.6530, 4100.000
247.8700, 4062.000
249.0870, 4088.000
250.3040, 4021.000
251.5200, 4057.000
252.7370, 4105.000
253.9530, 4037.000
255.1690, 4077.000
256.3850, 4134.000
257.6000, 4137.000
258.8160, 4115.000
260.0310, 4164.000
261.2460, 4091.000
262.4610, 4136.000
263.6760, 4128.093
264.8910, 4212.000
266.1050, 4150.000
267.3200, 4170.000
268.5340, 4215.000
269.7480, 4258.000
270.9620, 4250.000
272.1750, 4213.000
273.3890, 4287.000
274.6020, 4232.000
275.8150, 4213.000
277.0280, 4259.000
278.2410, 4298.000
279.4540, 4254.000
280.6660, 4206.000
281.8790, 4330.000
283.0910, 4281.000
284.3030, 4338.000
285.5140, 4154.000
286.7260, 4265.000
287.9380, 4203.000
289.1490, 4323.000
290.3600, 4247.000
291.5710, 4381.000
292.7820, 4312.000
293.9920, 4351.000
295.2030, 4269.000
296.4130, 4313.000
297.6230, 4404.000
298.8330, 4300.000
300.0430, 4411.000
301.2520, 4474.000
302.4620, 4364.000
303.6710, 4347.000
304.8800, 4337.000
306.0890, 4394.000
307.2980, 4404.000
308.5070, 4395.000
309.7150, 4453.000
310.9230, 4444.000
312.1310, 4396.000
313.3390, 4482.000
314.5470, 4421.000
315.7550, 4385.000
316.9620, 4378.000
318.1690, 4475.000
319.3760, 4377.000
320.5830, 4578.000
321.7900, 4448.000
322.9960, 4476.000
324.2030, 4530.000
325.4090, 4543.000
326.6150, 4510.000
327.8210, 4528.000
329.0270, 4557.000
330.2320, 4631.000
331.4380, 4538.000
332.6430, 4617.000
333.8480, 4574.000
335.0530, 4605.000
336.2580, 4713.000
337.4620, 4722.000
338.6670, 4768.000
339.8710, 4763.942
341.0750, 4660.000
342.2790, 4738.000
343.4820, 4836.000
344.6860, 4885.000
345.8890, 5018.000
347.0920, 5146.000
348.2960, 5285.000
349.4980, 5525.000
350.7010, 5768.000
351.9040, 5977.000
353.1060, 6215.000
354.3080, 6598.000
355.5100, 6842.000
356.7120, 7091.000
357.9140, 7246.000
359.1150, 7271.000
360.3170, 7083.000
361.5180, 6581.000
362.7190, 6236.000
363.9200, 5754.000
365.1200, 5510.811
366.3210, 5236.000
367.5210, 5130.000
368.7210, 5062.000
369.9210, 5049.000
371.1210, 4948.000
372.3210, 4936.000
373.5200, 4813.000
374.7200, 4888.000
375.9190, 4900.000
377.1180, 4867.000
378.3170, 4827.000
379.5150, 4819.000
380.7140, 4807.000
381.9120, 4856.000
383.1110, 4899.000
384.3090, 4842.000
385.5060, 4960.000
386.7040, 4926.000
387.9020, 4891.000
389.0990, 5012.000
390.2960, 4986.000
391.4930, 5049.000
392.6900, 5057.000
393.8860, 5054.000
395.0830, 5081.994
396.2790, 5101.000
397.4750, 5092.000
398.6710, 5057.000
399.8670, 5045.000
401.0630, 5036.065
402.2580, 5048.000
403.4540, 5010.000
404.6490, 5076.000
405.8440, 5038.000
407.0390, 5013.000
408.2330, 5049.000
409.4280, 5061.000
410.6220, 5122.000
411.8160, 5106.000
413.0100, 5044.000
414.2040, 5171.000
415.3980, 5035.000
416.5910, 5079.000
417.7850, 5119.000
418.9780, 5220.000
420.1710, 5266.000
421.3640, 5276.452
422.5560, 5236.000
423.7490, 5304.000
424.9410, 5313.000
426.1330, 5391.000
427.3250, 5610.000
428.5170, 5602.000
429.7090, 5748.000
430.9000, 5978.000
432.0910, 6276.000
433.2820, 6477.000
434.4730, 6845.000
435.6640, 7158.000
436.8550, 7602.000
438.0450, 7950.000
439.2360, 8364.000
440.4260, 8759.000
441.6160, 8848.000
442.8060, 8655.000
443.9950, 8179.000
445.1850, 7721.000
446.3740, 7200.000
447.5630, 6731.000
448.7520, 6351.000
449.9410, 6131.000
451.1300, 5904.000
452.3180, 5782.000
453.5060, 5715.000
454.6950, 5557.000
455.8830, 5508.651
457.0700, 5549.000
458.2580, 5435.000
459.4450, 5408.000
460.6330, 5479.000
461.8200, 5451.000
463.0070, 5424.000
464.1940, 5431.000
465.3800, 5421.000
466.5670, 5418.296
467.7530, 5400.000
468.9390, 5415.000
470.1250, 5398.000
471.3110, 5383.000
472.4970, 5453.000
473.6820, 5373.000
474.8680, 5336.000
476.0530, 5557.000
477.2380, 5462.773
478.4230, 5476.375
479.6070, 5450.000
480.7920, 5440.000
481.9760, 5369.000
483.1600, 5456.000
484.3440, 5345.000
485.5280, 5397.000
486.7120, 5334.000
487.8950, 5524.000
489.0780, 5443.000
490.2620, 5519.000
491.4450, 5477.000
492.6270, 5409.000
493.8100, 5501.000
494.9920, 5468.000
496.1750, 5463.000
497.3570, 5375.000
498.5390, 5467.000
499.7210, 5490.000
500.9020, 5505.000
502.0840, 5510.000
503.2650, 5488.994
504.4460, 5558.000
505.6270, 5413.000
506.8080, 5535.000
507.9890, 5484.000
509.1690, 5600.000
510.3500, 5463.000
511.5300, 5496.000
512.7100, 5479.000
513.8900, 5607.000
515.0690, 5610.000
516.2490, 5520.000
517.4280, 5517.000
518.6070, 5534.000
519.7860, 5590.000
520.9650, 5570.000
522.1440, 5582.000
523.3220, 5586.000
524.5010, 5599.389
525.6790, 5611.000
526.8570, 5620.000
528.0350, 5661.000
529.2130, 5626.000
530.3900, 5652.000
531.5670, 5671.000
532.7450, 5598.000
533.9220, 5629.000
535.0980, 5612.000
536.2750, 5617.187
537.4520, 5682.000
538.6280, 5656.000
539.8040, 5688.000
540.9800, 5711.000
542.1560, 5678.000
543.3320, 5711.000
544.5070, 5782.000
545.6830, 5772.619
546.8580, 5738.000
548.0330, 5825.000
549.2080, 5739.000
550.3830, 5777.000
551.5570, 5760.000
552.7310, 5826.000
553.9060, 5795.000
555.0800, 5767.000
556.2540, 5786.000
557.4270, 5777.000
558.6010, 5784.000
559.7740, 5814.000
560.9470, 5820.000
562.1210, 5849.000
563.2930, 5847.000
564.4660, 5865.200
565.6390, 5863.000
566.8110, 5865.000
567.9830, 5882.000
569.1550, 5826.000
570.3270, 5829.000
571.4990, 5843.218
572.6710, 5836.756
573.8420, 5928.000
575.0130, 5822.000
576.1840, 5947.000
577.3550, 5848.000
578.5260, 5922.000
579.6970, 5918.000
580.8670, 5947.000
582.0370, 5941.000
583.2070, 5928.000
584.3770, 5926.000
585.5470, 5922.264
586.7170, 5905.000
587.8860, 5950.000
589.0550, 5928.000
590.2240, 6003.000
591.3930, 5969.934
592.5620, 5919.000
593.7310, 5944.000
594.8990, 5994.000
596.0670, 6021.000
597.2350, 6077.000
598.4030, 5976.000
599.5710, 6006.000
600.7390, 6034.000
601.9060, 5976.000
603.0740, 6004.000
604.2410, 6038.000
605.4080, 6047.000
606.5740, 6053.000
607.7410, 6081.000
608.9080, 6065.000
610.0740, 6103.000
611.2400, 6078.000
612.4060, 6020.000
613.5720, 6075.000
614.7370, 6124.000
615.9030, 6224.000
617.0680, 6231.000
618.2330, 6154.000
619.3980, 6228.000
620.5630, 6165.000
621.7280, 6250.000
622.8920, 6230.000
624.0570, 6263.000
625.2210, 6249.000
626.3850, 6260.000
627.5490, 6231.000
628.7120, 6184.000
629.8760, 6193.000
631.0390, 6259.000
632.2020, 6183.000
633.3650, 6252.000
634.5280, 6273.000
635.6910, 6260.000
636.8530, 6231.000
638.0160, 6280.000
639.1780, 6222.000
640.3400, 6152.000
641.5020, 6396.000
642.6640, 6296.228
643.8250, 6497.000
644.9870, 6341.000
646.1480, 6312.000
647.3090, 6390.000
648.4700, 6405.000
649.6300, 6399.000
650.7910, 6325.000
651.9510, 6366.000
653.1120, 6350.000
654.2720, 6383.000
655.4320, 6323.000
656.5910, 6382.000
657.7510, 6426.000
658.9100, 6528.000
660.0690, 6378.000
661.2290, 6425.000
662.3880, 6463.000
663.5460, 6400.000
664.7050, 6449.000
665.8630, 6440.000
667.0220, 6423.000
668.1800, 6557.000
669.3380, 6505.000
670.4950, 6476.000
671.6530, 6555.000
672.8100, 6431.000
673.9680, 6513.000
675.1250, 6553.000
676.2820, 6569.000
677.4390, 6582.000
678.5950, 6518.000
679.7520, 6506.000
680.9080, 6458.000
682.0640, 6465.669
683.2200, 6442.000
684.3760, 6490.000
685.5320, 6533.000
686.6870, 6539.000
687.8420, 6583.000
688.9980, 6582.000
690.1530, 6553.000
691.3070, 6662.000
692.4620, 6547.000
693.6170, 6646.000
694.7710, 6638.000
695.9250, 6649.000
697.0790, 6655.000
698.2330, 6642.000
699.3870, 6725.000
700.5400, 6748.000
701.6940, 6620.000
702.8470, 6684.000
704.0000, 6619.000
705.1530, 6709.000
706.3050, 6633.000
707.4580, 6682.000
708.6100, 6750.000
709.7630, 6759.000
710.9150, 6653.000
712.0660, 6763.000
713.2180, 6769.000
714.3700, 6714.000
715.5210, 6805.000
716.6720, 6801.000
717.8240, 6699.000
718.9740, 6825.000
720.1250, 6771.000
721.2760, 6792.000
722.4260, 6798.000
723.5770, 6885.000
724.7270, 6808.000
725.8770, 6852.000
727.0260, 6860.000
728.1760, 6973.000
729.3250, 6829.000
730.4750, 6967.000
731.6240, 6901.000
732.7730, 6848.000
733.9220, 6843.000
735.0700, 6870.000
736.2190, 6913.000
737.3670, 7009.000
738.5150, 6888.000
739.6630, 6867.000
740.8110, 6915.000
741.9590, 6998.000
743.1060, 6833.000
744.2540, 7017.000
745.4010, 6948.000
746.5480, 6941.000
747.6950, 7043.000
748.8410, 6951.000
749.9880, 7033.000
751.1340, 6892.000
752.2800, 7046.000
753.4260, 7033.000
754.5720, 7005.000
755.7180, 7042.000
756.8640, 7073.000
758.0090, 6984.000
759.1540, 7063.000
760.2990, 6971.000
761.4440, 6987.000
762.5890, 7069.000
763.7340, 6992.000
764.8780, 7096.000
766.0220, 7074.000
767.1660, 7131.000
768.3100, 7150.892
769.4540, 7096.000
770.5980, 7165.271
771.7410, 7157.000
772.8840, 7140.000
774.0280, 7162.000
775.1700, 7166.000
776.3130, 7217.000
777.4560, 7303.000
778.5980, 7170.000
779.7410, 7258.000
780.8830, 7161.000
782.0250, 7240.000
783.1670, 7257.000
784.3080, 7347.000
785.4500, 7259.000
786.5910, 7208.000
787.7320, 7330.000
788.8730, 7216.000
790.0140, 7328.000
791.1550, 7173.000
792.2950, 7308.000
793.4360, 7345.000
794.5760, 7307.000
795.7160, 7359.000
796.8560, 7293.000
797.9960, 7214.000
799.1350, 7409.000
800.2750, 7436.000
801.4140, 7325.000
802.5530, 7462.000
803.6920, 7466.000
804.8310, 7299.000
805.9690, 7365.000
807.1080, 7448.000
808.2460, 7444.000
809.3840, 7383.000
810.5220, 7398.000
811.6600, 7371.000
812.7970, 7408.302
813.9350, 7443.000
815.0720, 7481.000
816.2090, 7540.000
817.3460, 7519.000
818.4830, 7550.000
819.6200, 7466.000
820.7560, 7547.000
821.8930, 7607.000
823.0290, 7567.000
824.1650, 7682.000
825.3010, 7622.000
826.4360, 7601.000
827.5720, 7566.000
828.7070, 7663.000
829.8420, 7568.000
830.9770, 7668.000
832.1120, 7557.000
833.2470, 7618.000
834.3820, 7747.000
835.5160, 7548.000
836.6500, 7700.000
837.7840, 7764.000
838.9180, 7702.000
840.0520, 7698.000
841.1860, 7665.000
842.3190, 7756.000
843.4520, 7753.000
844.5850, 7730.000
845.7180, 7713.000
846.8510, 7725.000
847.9840, 7739.000
849.1160, 7784.000
850.2490, 7869.000
851.3810, 7887.000
852.5130, 7874.000
853.6450, 7733.000
854.7760, 7927.000
855.9080, 7767.000
857.0390, 7933.000
858.1700, 7830.000
859.3010, 7805.000
860.4320, 7839.000
861.5630, 7927.000
862.6930, 7892.000
863.8240, 7888.000
864.9540, 7845.000
866.0840, 7789.000
867.2140, 7920.000
868.3440, 7911.000
869.4730, 7923.000
870.6030, 7892.000
871.7320, 7854.000
872.8610, 7943.000
873.9900, 7971.000
875.1190, 8072.000
876.2470, 8062.000
877.3760, 7964.000
878.5040, 8076.000
879.6320, 7922.000
880.7600, 7988.000
881.8880, 8022.000
883.0150, 8027.000
884.1430, 8133.000
885.2700, 8080.000
886.3970, 8179.000
887.5240, 8083.000
888.6510, 8066.000
889.7780, 8073.000
890.9040, 8158.000
892.0310, 8174.000
893.1570, 8189.000
894.2830, 8113.000
895.4090, 8140.000
896.5350, 8172.000
897.6600, 8112.000
898.7860, 8141.000
899.9110, 8170.000
901.0360, 8231.000
902.1610, 8065.000
903.2860, 8152.000
904.4100, 8146.000
905.5350, 8215.000
906.6590, 8361.000
907.7830, 8302.000
908.9070, 8302.000
910.0310, 8245.000
911.1540, 8401.000
912.2780, 8272.000
913.4010, 8349.000
914.5240, 8254.000
915.6470, 8186.000
916.7700, 8242.000
917.8930, 8264.000
919.0150, 8342.000
920.1380, 8407.000
921.2600, 8313.000
922.3820, 8428.000
923.5040, 8329.000
924.6260, 8396.000
925.7470, 8419.000
926.8690, 8299.000
927.9900, 8535.000
929.1110, 8270.000
930.2320, 8434.000
931.3530, 8463.000
932.4730, 8430.000
933.5940, 8528.000
934.7140, 8379.000
935.8340, 8363.000
936.9540, 8416.000
938.0740, 8417.000
939.1930, 8481.000
940.3130, 8534.000
941.4320, 8599.000
942.5510, 8597.000
943.6700, 8557.000
944.7890, 8572.000
945.9080, 8605.000
947.0260, 8694.000
948.1450, 8570.000
949.2630, 8652.000
950.3810, 8623.000
951.4990, 8694.000
952.6170, 8721.738
953.7340, 8656.000
954.8520, 8763.000
955.9690, 8734.000
957.0860, 8688.000
958.2030, 8763.000
959.3200, 8828.000
960.4360, 8745.000
961.5530, 8926.000
962.6690, 8767.000
963.7850, 8754.000
964.9010, 8831.000
966.0170, 8881.000
967.1330, 8893.000
968.2480, 8988.000
969.3630, 9113.000
970.4790, 9282.000
971.5940, 9614.000
972.7080, 9700.000
973.8230, 10007.00
974.9380, 10423.00
976.0520, 10677.00
977.1660, 10697.00
978.2800, 10444.00
979.3940, 9769.000
980.5080, 9506.000
981.6220, 9440.000
982.7350, 9288.000
983.8480, 9140.000
984.9610, 8980.000
986.0740, 9162.000
987.1870, 8967.000
988.3000, 9104.000
989.4120, 9095.000
990.5250, 9128.000
991.6370, 9183.000
992.7490, 9198.000
993.8610, 9235.000
994.9720, 9344.000
996.0840, 9371.000
997.1950, 9524.000
998.3060, 9675.000
999.4170, 10003.00
1000.528, 10204.00
1001.639, 10816.00
1002.750, 11564.00
1003.860, 12540.00
1004.970, 13907.00
1006.080, 15548.00
1007.190, 16967.00
1008.300, 18763.00
1009.410, 20155.00
1010.519, 19793.00
1011.628, 17953.00
1012.738, 15400.00
1013.846, 13190.00
1014.955, 11752.00
1016.064, 10924.00
1017.172, 10415.00
1018.281, 10064.00
1019.389, 9803.000
1020.497, 9694.000
1021.605, 9700.000
1022.713, 9608.000
1023.820, 9502.000
1024.928, 9502.000
1026.035, 9522.000
1027.142, 9347.000
1028.249, 9306.000
1029.356, 9453.000
1030.462, 9425.000
1031.569, 9402.000
1032.675, 9498.000
1033.781, 9462.000
1034.887, 9570.000
1035.993, 9523.000
1037.098, 9436.000
1038.204, 9471.000
1039.309, 9445.502
1040.415, 9487.000
1041.520, 9464.000
1042.624, 9603.000
1043.729, 9602.000
1044.834, 9486.000
1045.938, 9653.000
1047.042, 9682.000
1048.146, 9617.000
1049.250, 9525.000
1050.354, 9617.000
1051.458, 9622.000
1052.561, 9674.000
1053.664, 9625.000
1054.767, 9654.000
1055.870, 9723.000
1056.973, 9615.000
1058.076, 9686.000
1059.178, 9634.000
1060.281, 9720.000
1061.383, 9710.000
1062.485, 9701.000
1063.587, 9682.000
1064.688, 9656.000
1065.790, 9736.000
1066.891, 9709.000
1067.993, 9709.676
1069.094, 9763.000
1070.195, 9690.000
1071.295, 9755.000
1072.396, 9768.000
1073.496, 9826.000
1074.597, 9794.000
1075.697, 9767.000
1076.797, 9740.000
1077.897, 9757.000
1078.996, 9765.571
1080.096, 9836.000
1081.195, 9831.000
1082.294, 9895.000
1083.393, 9945.000
1084.492, 9817.000
1085.591, 9959.000
1086.689, 9974.000
1087.788, 10103.00
1088.886, 10141.00
1089.984, 10054.00
1091.082, 9987.000
1092.180, 10150.00
1093.277, 10107.00
1094.375, 10059.00
1095.472, 10090.00
1096.569, 10193.00
1097.666, 10101.00
1098.763, 10079.00
1099.860, 10083.00
1100.956, 9950.000
1102.053, 10175.00
1103.149, 10313.00
1104.245, 10138.00
1105.341, 10221.00
1106.436, 10271.00
1107.532, 10230.00
1108.627, 10316.00
1109.723, 10199.00
1110.818, 10315.00
1111.913, 10262.00
1113.007, 10205.00
1114.102, 10285.00
1115.197, 10339.00
1116.291, 10183.00
1117.385, 10134.00
1118.479, 10241.00
1119.573, 10364.00
1120.666, 10207.00
1121.760, 10285.00
1122.853, 10297.00
1123.947, 10323.00
1125.040, 10358.00
1126.132, 10352.92
1127.225, 10355.51
1128.318, 10361.00
1129.410, 10328.00
1130.502, 10351.00
1131.595, 10338.52
1132.687, 10373.00
1133.778, 10364.00
1134.870, 10400.00
1135.961, 10372.00
1137.053, 10429.00
1138.144, 10350.00
1139.235, 10470.00
1140.326, 10446.00
1141.416, 10332.00
1142.507, 10389.00
1143.597, 10447.00
1144.688, 10509.00
1145.778, 10599.00
1146.868, 10513.00
1147.957, 10542.00
1149.047, 10656.00
1150.136, 10565.00
1151.226, 10509.00
1152.315, 10647.00
1153.404, 10510.00
1154.493, 10527.00
1155.581, 10443.00
1156.670, 10543.00
1157.758, 10585.00
1158.846, 10537.00
1159.934, 10633.00
1161.022, 10665.00
1162.110, 10682.00
1163.198, 10701.00
1164.285, 10641.00
1165.372, 10734.00
1166.459, 10643.00
1167.546, 10547.00
1168.633, 10550.00
1169.720, 10731.00
1170.806, 10718.00
1171.892, 10683.00
1172.979, 10682.00
1174.065, 10731.00
1175.150, 10741.00
1176.236, 10758.00
1177.322, 10859.00
1178.407, 10717.00
1179.492, 10628.00
1180.577, 10698.00
1181.662, 10726.00
1182.747, 10667.00
1183.832, 10713.00
1184.916, 10822.00
1186.000, 10862.00
1187.084, 10816.00
1188.168, 11026.00
1189.252, 11007.00
1190.336, 10986.00
1191.419, 10822.00
1192.503, 10816.00
1193.586, 10869.00
1194.669, 10889.00
1195.752, 10951.00
1196.835, 10990.00
1197.917, 11004.00
1199.000, 10976.00
1200.082, 11018.00
1201.164, 11005.00
1202.246, 11011.00
1203.328, 11066.00
1204.409, 10932.00
1205.491, 11067.00
1206.572, 10911.00
1207.653, 11059.00
1208.734, 11101.00
1209.815, 11061.16
1210.896, 11097.00
1211.976, 11088.00
1213.057, 11083.00
1214.137, 11160.00
1215.217, 11263.00
1216.297, 11102.00
1217.377, 11086.00
1218.456, 11252.00
1219.536, 11249.00
1220.615, 11135.00
1221.694, 11264.00
1222.773, 11193.00
1223.852, 11131.00
1224.931, 11336.00
1226.009, 11265.00
1227.088, 11243.00
1228.166, 11263.00
1229.244, 11322.00
1230.322, 11340.00
1231.400, 11372.82
1232.477, 11386.00
1233.555, 11400.00
1234.632, 11395.00
1235.709, 11347.00
1236.786, 11301.00
1237.863, 11249.00
1238.939, 11264.00
1240.016, 11272.00
1241.092, 11290.78
1242.168, 11374.00
1243.245, 11384.00
1244.320, 11421.00
1245.396, 11500.00
1246.472, 11501.00
1247.547, 11557.00
1248.622, 11446.00
1249.697, 11484.00
1250.772, 11491.00
1251.847, 11495.00
1252.922, 11547.00
1253.996, 11533.00
1255.071, 11546.35
1256.145, 11596.00
1257.219, 11549.00
1258.293, 11504.00
1259.366, 11507.00
1260.440, 11529.00
1261.513, 11611.00
1262.587, 11631.00
1263.660, 11754.00
1264.733, 11588.00
1265.805, 11588.00
1266.878, 11537.00
1267.951, 11669.00
1269.023, 11720.00
1270.095, 11761.00
1271.167, 11783.00
1272.239, 11754.76
1273.311, 11675.00
1274.382, 11688.00
1275.454, 11682.00
1276.525, 11712.00
1277.596, 11721.16
1278.667, 11671.00
1279.738, 11770.00
1280.808, 11745.00
1281.879, 11793.00
1282.949, 11847.33
1284.019, 11915.00
1285.089, 11922.00
1286.159, 11926.00
1287.229, 11905.00
1288.298, 11911.00
1289.368, 11946.00
1290.437, 11880.00
1291.506, 11887.00
1292.575, 11933.00
1293.644, 12040.00
1294.712, 11910.00
1295.781, 11906.00
1296.849, 12018.00
1297.917, 11981.00
1298.985, 11989.00
1300.053, 12069.00
1301.121, 12016.84
1302.188, 11972.00
1303.255, 11970.00
1304.323, 12048.00
1305.390, 12010.00
1306.457, 12028.70
1307.523, 11990.00
1308.590, 12002.00
1309.656, 12019.00
1310.723, 11972.00
1311.789, 12185.00
1312.855, 12131.00
1313.921, 12136.00
1314.986, 12154.00
1316.052, 12059.00
1317.117, 12169.00
1318.182, 12226.00
1319.248, 12129.00
1320.312, 12091.00
1321.377, 12249.00
1322.442, 12305.00
1323.506, 12069.00
1324.571, 12342.00
1325.635, 12220.00
1326.699, 12258.00
1327.762, 12204.00
1328.826, 12366.00
1329.890, 12304.00
1330.953, 12163.00
1332.016, 12315.00
1333.079, 12282.00
1334.142, 12334.00
1335.205, 12286.00
1336.268, 12324.00
1337.330, 12456.00
1338.392, 12558.00
1339.454, 12521.23
1340.516, 12526.00
1341.578, 12422.00
1342.640, 12524.00
1343.701, 12436.00
1344.763, 12436.00
1345.824, 12314.00
1346.885, 12494.00
1347.946, 12533.00
1349.007, 12376.00
1350.067, 12535.00
1351.128, 12543.00
1352.188, 12554.00
1353.248, 12759.00
1354.308, 12656.00
1355.368, 12599.00
1356.428, 12696.00
1357.487, 12418.00
1358.547, 12631.00
1359.606, 12601.00
1360.665, 12675.00
1361.724, 12723.00
1362.783, 12578.00
1363.841, 12647.00
1364.900, 12735.00
1365.958, 12614.00
1367.016, 12737.00
1368.074, 12756.00
1369.132, 12701.00
1370.190, 12742.00
1371.247, 12760.00
1372.304, 12796.00
1373.362, 12848.00
1374.419, 12765.00
1375.476, 12861.00
1376.532, 12749.00
1377.589, 12776.00
1378.645, 12761.00
1379.702, 12757.00
1380.758, 12777.00
1381.814, 12755.83
1382.870, 12801.61
1383.925, 12761.00
1384.981, 12847.00
1386.036, 12915.00
1387.092, 12858.00
1388.147, 12983.00
1389.202, 13038.00
1390.256, 13032.00
1391.311, 13001.00
1392.365, 12972.00
1393.420, 13014.00
1394.474, 12856.00
1395.528, 12922.00
1396.582, 12924.00
1397.636, 13083.00
1398.689, 13093.00
1399.742, 13027.00
1400.796, 13075.00
1401.849, 13023.00
1402.902, 12872.00
1403.955, 13088.00
1405.007, 13048.00
1406.060, 13229.00
1407.112, 13359.00
1408.164, 13172.00
1409.216, 13079.00
1410.268, 13139.00
1411.320, 13089.00
1412.371, 13128.00
1413.423, 13178.00
1414.474, 13102.00
1415.525, 13225.00
1416.576, 13176.00
1417.627, 13101.00
1418.678, 13189.00
1419.728, 13093.00
1420.778, 13229.00
1421.829, 13364.00
1422.879, 13308.00
1423.928, 13304.00
1424.978, 13295.00
1426.028, 13249.00
1427.077, 13244.00
1428.126, 13372.00
1429.176, 13324.00
1430.225, 13402.00
1431.273, 13451.00
1432.322, 13324.00
1433.371, 13505.00
1434.419, 13334.00
1435.467, 13522.00
1436.515, 13482.00
1437.563, 13506.00
1438.611, 13445.00
1439.658, 13422.00
1440.706, 13488.00
1441.753, 13367.00
1442.800, 13532.00
1443.847, 13509.00
1444.894, 13491.00
1445.941, 13444.00
1446.987, 13695.00
1448.034, 13627.00
1449.080, 13639.00
1450.126, 13674.00
1451.172, 13520.00
1452.218, 13684.00
1453.263, 13654.00
1454.309, 13711.00
1455.354, 13628.00
1456.399, 13644.56
1457.444, 13722.00
1458.489, 13667.00
1459.534, 13728.00
1460.579, 13842.00
1461.623, 13708.00
1462.667, 13831.00
1463.711, 13895.00
1464.755, 13966.00
1465.799, 13828.00
1466.843, 13810.00
1467.886, 13899.00
1468.930, 13902.00
1469.973, 14035.00
1471.016, 13861.00
1472.059, 13940.00
1473.101, 13862.00
1474.144, 13880.00
1475.186, 13793.00
1476.229, 13886.00
1477.271, 13870.00
1478.313, 13807.00
1479.355, 13860.00
1480.396, 13936.00
1481.438, 13921.00
1482.479, 14030.00
1483.520, 13918.00
1484.561, 14007.00
1485.602, 13836.00
1486.643, 14015.00
1487.684, 13822.00
1488.724, 14046.00
1489.765, 13957.00
1490.805, 14085.00
1491.845, 13971.00
1492.885, 14145.00
1493.924, 14017.00
1494.964, 14062.00
1496.003, 14023.00
1497.042, 13923.00
1498.082, 13988.12
1499.120, 14112.00
1500.159, 14046.00
1501.198, 14084.00
1502.236, 14119.00
1503.275, 14063.00
1504.313, 14244.00
1505.351, 14182.00
1506.389, 14176.00
1507.427, 14209.00
1508.464, 14163.00
1509.502, 14170.00
1510.539, 14443.00
1511.576, 14319.97
1512.613, 14666.00
1513.650, 14271.00
1514.687, 14286.00
1515.723, 14260.00
1516.759, 14278.00
1517.796, 14323.00
1518.832, 14292.00
1519.868, 14333.11
1520.903, 14407.00
1521.939, 14370.00
1522.975, 14375.00
1524.010, 14379.00
1525.045, 14296.00
1526.080, 14257.00
1527.115, 14378.00
1528.150, 14157.00
1529.184, 14404.00
1530.219, 14230.00
1531.253, 14375.00
1532.287, 14159.00
1533.321, 14381.00
1534.355, 14452.00
1535.388, 14190.00
1536.422, 14350.00
1537.455, 14448.00
1538.488, 14207.00
1539.522, 14469.00
1540.554, 14491.00
1541.587, 14398.00
1542.620, 14258.00
1543.652, 14348.00
1544.685, 14379.00
1545.717, 14359.00
1546.749, 14423.00
1547.781, 14347.00
1548.812, 14416.42
1549.844, 14375.00
1550.875, 14443.00
1551.906, 14443.00
1552.938, 14311.00
1553.968, 14538.00
1554.999, 14529.00
1556.030, 14405.00
1557.060, 14408.00
1558.091, 14452.00
1559.121, 14460.00
1560.151, 14461.00
1561.181, 14492.00
1562.211, 14547.00
1563.240, 14455.00
1564.270, 14582.00
1565.299, 14560.00
1566.328, 14490.00
1567.357, 14509.00
1568.386, 14601.00
1569.415, 14612.00
1570.443, 14610.00
1571.472, 14641.00
1572.500, 14639.00
1573.528, 14627.00
1574.556, 14493.00
1575.584, 14713.00
1576.611, 14764.00
1577.639, 14646.00
1578.666, 14713.00
1579.693, 15033.00
##END=



