##NAMES=Zircon
##RRUFFID=R050286
##IDEAL CHEMISTRY=Zr^4+^SiO_4_
##LOCALITY=Renfrew County, Ontario, Canada
##OWNER=RRUFF
##SOURCE=Marcus Origlieri
##DESCRIPTION=Brownish red prismatic crystal frozen in matrix, associated with apatite
##STATUS=The identification of this mineral has been confirmed by X-ray diffraction and chemical analysis
##URL=rruff.info/R050286
##MEASURED CHEMISTRY=Zr_1.00_Si_1.00_O_4_; trace amounts of Hf
##PIN_ID=L00926
##ORIENTATION=Laser parallel to a* (1 0 0). Fiducial mark perpendicular to laser is parallel to c [0 0 1]
63.41100, 131.0000
64.65300, 159.0000
65.89600, 138.0000
67.13800, 129.0000
68.38000, 132.0000
69.62200, 139.0000
70.86300, 131.0000
72.10500, 144.0000
73.34600, 139.0000
74.58700, 142.0000
75.82800, 139.0000
77.06900, 139.0000
78.30900, 148.0000
79.55000, 155.0000
80.79000, 150.0000
82.03000, 169.0000
83.27000, 154.0000
84.51000, 147.0000
85.74900, 188.0000
86.98900, 194.0000
88.22800, 215.0000
89.46700, 251.0000
90.70600, 289.0000
91.94400, 320.0000
93.18300, 371.0000
94.42100, 425.0000
95.65900, 539.0000
96.89700, 647.0000
98.13500, 1423.000
99.37300, 1972.000
100.6100, 1484.000
101.8480, 1136.000
103.0850, 1322.000
104.3220, 1538.000
105.5590, 1701.000
106.7950, 2003.000
108.0320, 2193.000
109.2680, 2502.000
110.5040, 2694.000
111.7400, 2952.000
112.9760, 3296.000
114.2120, 3585.000
115.4470, 3830.000
116.6820, 4024.000
117.9170, 4238.803
119.1520, 4359.870
120.3870, 4554.000
121.6220, 4582.000
122.8560, 4642.000
124.0900, 4786.000
125.3240, 4834.000
126.5580, 4944.000
127.7920, 5066.000
129.0260, 5159.000
130.2590, 5271.167
131.4920, 5367.000
132.7250, 5460.000
133.9580, 5539.910
135.1910, 5590.413
136.4230, 5732.000
137.6560, 5762.524
138.8880, 5753.000
140.1200, 5873.000
141.3520, 5895.068
142.5830, 5962.071
143.8150, 6033.000
145.0460, 5983.000
146.2770, 5988.000
147.5080, 5927.000
148.7390, 6012.000
149.9700, 6108.000
151.2000, 6109.000
152.4310, 6188.000
153.6610, 6171.000
154.8910, 6263.000
156.1210, 6217.000
157.3500, 6272.000
158.5800, 6300.000
159.8090, 6429.000
161.0380, 6492.000
162.2670, 6414.000
163.4960, 6535.000
164.7240, 6540.000
165.9530, 6480.000
167.1810, 6444.000
168.4090, 6405.000
169.6370, 6471.000
170.8650, 6487.000
172.0920, 6459.000
173.3200, 6586.000
174.5470, 6492.000
175.7740, 6574.000
177.0010, 6451.000
178.2280, 6545.000
179.4540, 6557.000
180.6810, 6588.000
181.9070, 6622.000
183.1330, 6551.000
184.3590, 6700.000
185.5850, 6559.000
186.8100, 6634.000
188.0350, 6775.000
189.2610, 6787.000
190.4860, 6924.000
191.7110, 6892.000
192.9350, 7032.000
194.1600, 7010.000
195.3840, 7228.000
196.6080, 7409.000
197.8320, 7615.000
199.0560, 7601.000
200.2800, 7809.000
201.5030, 8085.000
202.7270, 8466.000
203.9500, 8590.000
205.1730, 8612.000
206.3950, 8526.000
207.6180, 8349.000
208.8410, 8182.000
210.0630, 8095.000
211.2850, 8063.000
212.5070, 8122.000
213.7290, 8207.000
214.9500, 8377.000
216.1720, 8502.000
217.3930, 8485.000
218.6140, 8698.000
219.8350, 8807.000
221.0560, 8944.000
222.2770, 9137.000
223.4970, 9339.000
224.7170, 9649.000
225.9370, 9755.000
227.1570, 9599.000
228.3770, 9281.000
229.5970, 9001.000
230.8160, 8571.000
232.0350, 8200.000
233.2540, 7830.000
234.4730, 7707.000
235.6920, 7412.000
236.9110, 7337.000
238.1290, 7202.000
239.3470, 7273.000
240.5650, 7193.000
241.7830, 7155.000
243.0010, 7176.000
244.2180, 7212.000
245.4360, 7063.000
246.6530, 6991.000
247.8700, 7073.000
249.0870, 7145.000
250.3040, 7142.000
251.5200, 7174.494
252.7370, 7140.000
253.9530, 7135.000
255.1690, 7107.000
256.3850, 7016.000
257.6000, 7186.000
258.8160, 7113.000
260.0310, 7047.000
261.2460, 7206.000
262.4610, 7051.000
263.6760, 7145.000
264.8910, 7100.000
266.1050, 7286.000
267.3200, 7112.000
268.5340, 7156.000
269.7480, 7194.000
270.9620, 7121.000
272.1750, 7197.000
273.3890, 7228.000
274.6020, 7294.000
275.8150, 7266.000
277.0280, 7137.000
278.2410, 7196.000
279.4540, 7297.000
280.6660, 7247.000
281.8790, 7384.000
283.0910, 7457.000
284.3030, 7245.000
285.5140, 7272.000
286.7260, 7371.000
287.9380, 7290.000
289.1490, 7396.000
290.3600, 7405.000
291.5710, 7336.000
292.7820, 7445.000
293.9920, 7343.000
295.2030, 7293.000
296.4130, 7350.000
297.6230, 7360.000
298.8330, 7418.000
300.0430, 7439.000
301.2520, 7562.000
302.4620, 7377.000
303.6710, 7537.000
304.8800, 7467.000
306.0890, 7563.000
307.2980, 7500.000
308.5070, 7598.000
309.7150, 7612.000
310.9230, 7642.000
312.1310, 7618.000
313.3390, 7532.000
314.5470, 7700.000
315.7550, 7723.000
316.9620, 7761.000
318.1690, 7656.000
319.3760, 7742.000
320.5830, 7744.000
321.7900, 7856.000
322.9960, 7944.000
324.2030, 7863.000
325.4090, 7854.000
326.6150, 7951.000
327.8210, 7981.000
329.0270, 7979.000
330.2320, 8120.000
331.4380, 8141.000
332.6430, 8222.000
333.8480, 8223.000
335.0530, 8323.516
336.2580, 8419.386
337.4620, 8520.000
338.6670, 8684.000
339.8710, 8809.000
341.0750, 9003.000
342.2790, 9214.000
343.4820, 9490.000
344.6860, 9844.000
345.8890, 10431.00
347.0920, 10810.00
348.2960, 11249.00
349.4980, 12142.00
350.7010, 12866.00
351.9040, 13483.00
353.1060, 14336.00
354.3080, 14931.00
355.5100, 15457.00
356.7120, 15374.73
357.9140, 15298.00
359.1150, 14554.00
360.3170, 13655.00
361.5180, 12632.00
362.7190, 11838.00
363.9200, 11047.00
365.1200, 10527.00
366.3210, 10020.00
367.5210, 9756.000
368.7210, 9410.000
369.9210, 9183.000
371.1210, 9107.000
372.3210, 9058.000
373.5200, 8805.000
374.7200, 8848.000
375.9190, 8696.000
377.1180, 8683.000
378.3170, 8635.000
379.5150, 8555.000
380.7140, 8548.000
381.9120, 8530.000
383.1110, 8446.000
384.3090, 8543.000
385.5060, 8605.000
386.7040, 8522.000
387.9020, 8667.155
389.0990, 8593.688
390.2960, 8801.000
391.4930, 8565.000
392.6900, 8504.000
393.8860, 8581.000
395.0830, 8599.000
396.2790, 8570.000
397.4750, 8538.000
398.6710, 8473.000
399.8670, 8483.000
401.0630, 8438.000
402.2580, 8420.000
403.4540, 8452.518
404.6490, 8453.892
405.8440, 8525.000
407.0390, 8513.000
408.2330, 8555.000
409.4280, 8577.000
410.6220, 8644.000
411.8160, 8721.000
413.0100, 8695.000
414.2040, 8741.000
415.3980, 8733.000
416.5910, 8879.000
417.7850, 8924.000
418.9780, 8886.000
420.1710, 9080.000
421.3640, 9080.000
422.5560, 9323.000
423.7490, 9320.000
424.9410, 9531.000
426.1330, 9715.000
427.3250, 9939.000
428.5170, 10128.00
429.7090, 10462.00
430.9000, 10892.00
432.0910, 11107.00
433.2820, 11637.00
434.4730, 12022.00
435.6640, 12378.00
436.8550, 12857.00
438.0450, 13003.00
439.2360, 13286.00
440.4260, 13242.00
441.6160, 13069.00
442.8060, 12635.00
443.9950, 12021.00
445.1850, 11582.00
446.3740, 11149.00
447.5630, 10772.00
448.7520, 10372.00
449.9410, 10074.57
451.1300, 9811.695
452.3180, 9572.000
453.5060, 9441.000
454.6950, 9313.000
455.8830, 9263.000
457.0700, 9145.000
458.2580, 9078.000
459.4450, 8906.000
460.6330, 9025.000
461.8200, 8956.000
463.0070, 8918.000
464.1940, 8786.000
465.3800, 8780.000
466.5670, 8848.000
467.7530, 8820.000
468.9390, 8935.000
470.1250, 8922.000
471.3110, 8755.000
472.4970, 8822.000
473.6820, 8633.000
474.8680, 8752.000
476.0530, 8746.000
477.2380, 8792.000
478.4230, 8727.000
479.6070, 8729.000
480.7920, 8741.000
481.9760, 8731.452
483.1600, 8838.000
484.3440, 8806.000
485.5280, 8779.000
486.7120, 8908.000
487.8950, 8786.000
489.0780, 8714.000
490.2620, 8789.000
491.4450, 8734.000
492.6270, 8863.000
493.8100, 8849.000
494.9920, 8911.000
496.1750, 8847.000
497.3570, 8774.000
498.5390, 8761.000
499.7210, 8807.000
500.9020, 8865.000
502.0840, 8778.000
503.2650, 8953.000
504.4460, 8846.000
505.6270, 8850.000
506.8080, 8902.000
507.9890, 8810.000
509.1690, 8871.000
510.3500, 8947.000
511.5300, 8955.000
512.7100, 8839.000
513.8900, 8881.000
515.0690, 8878.000
516.2490, 8867.000
517.4280, 8940.000
518.6070, 8998.000
519.7860, 8929.000
520.9650, 8928.000
522.1440, 8943.000
523.3220, 8945.000
524.5010, 8949.912
525.6790, 8909.000
526.8570, 8948.000
528.0350, 8927.000
529.2130, 8902.000
530.3900, 8815.000
531.5670, 9012.000
532.7450, 9027.000
533.9220, 8988.000
535.0980, 9080.000
536.2750, 9000.000
537.4520, 9062.000
538.6280, 8949.000
539.8040, 9050.000
540.9800, 9029.000
542.1560, 9112.000
543.3320, 9024.000
544.5070, 8997.000
545.6830, 9123.000
546.8580, 9150.000
548.0330, 9117.000
549.2080, 9087.000
550.3830, 9106.000
551.5570, 9170.000
552.7310, 9114.000
553.9060, 9148.000
555.0800, 9077.000
556.2540, 9109.000
557.4270, 9113.000
558.6010, 9182.000
559.7740, 9068.000
560.9470, 9120.000
562.1210, 9079.000
563.2930, 9081.000
564.4660, 9153.000
565.6390, 9128.000
566.8110, 9141.000
567.9830, 9206.000
569.1550, 9023.000
570.3270, 9202.000
571.4990, 9130.000
572.6710, 9221.000
573.8420, 9207.000
575.0130, 9222.000
576.1840, 9147.000
577.3550, 9177.000
578.5260, 9224.000
579.6970, 9198.000
580.8670, 9235.474
582.0370, 9252.000
583.2070, 9284.000
584.3770, 9303.244
585.5470, 9270.000
586.7170, 9305.000
587.8860, 9322.000
589.0550, 9248.000
590.2240, 9283.000
591.3930, 9487.000
592.5620, 9310.000
593.7310, 9382.000
594.8990, 9291.000
596.0670, 9300.000
597.2350, 9307.000
598.4030, 9312.000
599.5710, 9320.226
600.7390, 9361.000
601.9060, 9319.000
603.0740, 9363.000
604.2410, 9333.000
605.4080, 9280.000
606.5740, 9318.000
607.7410, 9332.000
608.9080, 9320.000
610.0740, 9369.639
611.2400, 9448.000
612.4060, 9456.000
613.5720, 9390.000
614.7370, 9453.000
615.9030, 9398.970
617.0680, 9634.379
618.2330, 9768.117
619.3980, 9805.647
620.5630, 9458.816
621.7280, 9608.309
622.8920, 9558.894
624.0570, 9501.325
625.2210, 9720.670
626.3850, 9429.740
627.5490, 9644.693
628.7120, 9657.704
629.8760, 9763.141
631.0390, 9668.442
632.2020, 9635.558
633.3650, 9802.870
634.5280, 9859.332
635.6910, 9547.000
636.8530, 9660.000
638.0160, 9578.000
639.1780, 9766.000
640.3400, 9669.000
641.5020, 9872.000
642.6640, 9786.000
643.8250, 9806.000
644.9870, 9805.000
646.1480, 9778.000
647.3090, 9890.000
648.4700, 9879.000
649.6300, 9818.000
650.7910, 9772.000
651.9510, 9718.000
653.1120, 9799.000
654.2720, 9831.000
655.4320, 9773.000
656.5910, 9917.000
657.7510, 9729.000
658.9100, 9794.000
660.0690, 9943.000
661.2290, 9757.000
662.3880, 9849.000
663.5460, 9907.000
664.7050, 9882.000
665.8630, 9825.000
667.0220, 9836.000
668.1800, 9952.000
669.3380, 9996.000
670.4950, 10036.00
671.6530, 10025.35
672.8100, 10001.79
673.9680, 9980.000
675.1250, 9883.000
676.2820, 9943.000
677.4390, 9860.000
678.5950, 9886.000
679.7520, 9825.000
680.9080, 9942.000
682.0640, 9819.000
683.2200, 9727.000
684.3760, 9965.000
685.5320, 9932.000
686.6870, 10070.00
687.8420, 9935.000
688.9980, 9961.000
690.1530, 9945.000
691.3070, 9900.000
692.4620, 10032.00
693.6170, 10088.00
694.7710, 9966.000
695.9250, 9994.000
697.0790, 9941.000
698.2330, 9942.000
699.3870, 10171.00
700.5400, 10105.00
701.6940, 10070.00
702.8470, 10055.00
704.0000, 9984.000
705.1530, 9991.000
706.3050, 10178.00
707.4580, 10020.00
708.6100, 9963.000
709.7630, 10167.00
710.9150, 10106.00
712.0660, 10164.00
713.2180, 10154.00
714.3700, 10147.00
715.5210, 10179.65
716.6720, 10160.00
717.8240, 10211.00
718.9740, 10166.00
720.1250, 10173.00
721.2760, 10123.00
722.4260, 10272.00
723.5770, 10203.00
724.7270, 10122.00
725.8770, 10279.00
727.0260, 10374.00
728.1760, 10272.00
729.3250, 10326.00
730.4750, 10605.00
731.6240, 10274.00
732.7730, 10289.00
733.9220, 10217.00
735.0700, 10447.00
736.2190, 10324.79
737.3670, 10230.00
738.5150, 10264.00
739.6630, 10282.00
740.8110, 10323.00
741.9590, 10232.00
743.1060, 10227.00
744.2540, 10369.00
745.4010, 10237.00
746.5480, 10356.00
747.6950, 10323.00
748.8410, 10321.00
749.9880, 10346.00
751.1340, 10357.53
752.2800, 10358.15
753.4260, 10417.00
754.5720, 10376.00
755.7180, 10383.00
756.8640, 10424.00
758.0090, 10406.00
759.1540, 10563.00
760.2990, 10461.00
761.4440, 10520.71
762.5890, 10438.00
763.7340, 10544.00
764.8780, 10604.00
766.0220, 10627.38
767.1660, 10595.00
768.3100, 10657.00
769.4540, 10598.59
770.5980, 10576.00
771.7410, 10507.00
772.8840, 10493.00
774.0280, 10448.00
775.1700, 10642.00
776.3130, 10709.00
777.4560, 10730.00
778.5980, 10637.00
779.7410, 10698.00
780.8830, 10655.00
782.0250, 10548.00
783.1670, 10599.00
784.3080, 10688.00
785.4500, 10689.00
786.5910, 10721.00
787.7320, 10823.00
788.8730, 10843.00
790.0140, 10810.00
791.1550, 10826.00
792.2950, 10790.00
793.4360, 10835.00
794.5760, 10799.73
795.7160, 10906.00
796.8560, 10776.00
797.9960, 10744.00
799.1350, 10777.00
800.2750, 10840.00
801.4140, 10899.00
802.5530, 10824.00
803.6920, 10789.00
804.8310, 10849.00
805.9690, 10884.00
807.1080, 10991.00
808.2460, 10886.00
809.3840, 10865.00
810.5220, 10891.00
811.6600, 10957.00
812.7970, 10947.00
813.9350, 10926.00
815.0720, 10930.00
816.2090, 10955.00
817.3460, 11012.00
818.4830, 11000.53
819.6200, 11022.00
820.7560, 11009.57
821.8930, 11000.00
823.0290, 11011.00
824.1650, 11089.00
825.3010, 11027.00
826.4360, 11037.00
827.5720, 11149.00
828.7070, 11097.68
829.8420, 11132.92
830.9770, 11125.00
832.1120, 11131.00
833.2470, 11192.00
834.3820, 11196.00
835.5160, 11196.43
836.6500, 11062.00
837.7840, 11200.00
838.9180, 11176.00
840.0520, 11227.00
841.1860, 11379.00
842.3190, 11202.00
843.4520, 11324.00
844.5850, 11277.00
845.7180, 11183.00
846.8510, 11238.00
847.9840, 11175.00
849.1160, 11209.00
850.2490, 11240.00
851.3810, 11314.00
852.5130, 11215.00
853.6450, 11222.00
854.7760, 11367.00
855.9080, 11295.00
857.0390, 11445.00
858.1700, 11271.00
859.3010, 11315.00
860.4320, 11352.00
861.5630, 11408.00
862.6930, 11418.55
863.8240, 11388.00
864.9540, 11443.00
866.0840, 11424.00
867.2140, 11435.00
868.3440, 11501.00
869.4730, 11435.00
870.6030, 11510.00
871.7320, 11545.00
872.8610, 11640.00
873.9900, 11522.00
875.1190, 11538.00
876.2470, 11709.00
877.3760, 11655.00
878.5040, 11484.00
879.6320, 11703.00
880.7600, 11558.00
881.8880, 11645.00
883.0150, 11572.00
884.1430, 11645.00
885.2700, 11789.00
886.3970, 11635.00
887.5240, 11637.00
888.6510, 11700.00
889.7780, 11644.00
890.9040, 11691.00
892.0310, 11668.00
893.1570, 11679.00
894.2830, 11636.00
895.4090, 11675.24
896.5350, 11788.00
897.6600, 11694.00
898.7860, 11880.00
899.9110, 11796.00
901.0360, 11858.00
902.1610, 11779.00
903.2860, 11906.00
904.4100, 12033.00
905.5350, 11832.00
906.6590, 11912.00
907.7830, 12044.00
908.9070, 12111.00
910.0310, 12070.00
911.1540, 12061.00
912.2780, 12172.16
913.4010, 12158.00
914.5240, 12325.29
915.6470, 12285.00
916.7700, 12222.00
917.8930, 12110.00
919.0150, 12181.00
920.1380, 12204.00
921.2600, 12207.00
922.3820, 12299.00
923.5040, 12210.00
924.6260, 12280.00
925.7470, 12256.00
926.8690, 12356.00
927.9900, 12414.00
929.1110, 12371.00
930.2320, 12518.00
931.3530, 12360.00
932.4730, 12255.00
933.5940, 12250.00
934.7140, 12318.00
935.8340, 12396.00
936.9540, 12407.00
938.0740, 12362.00
939.1930, 12239.33
940.3130, 12485.18
941.4320, 12629.33
942.5510, 12677.28
943.6700, 12340.87
944.7890, 12500.79
945.9080, 12461.79
947.0260, 12414.63
948.1450, 12644.40
949.2630, 12363.88
950.3810, 12589.25
951.4990, 12612.67
952.6170, 12728.52
953.7340, 12644.22
954.8520, 12621.75
955.9690, 12799.46
957.0860, 12866.32
958.2030, 12758.99
959.3200, 12880.70
960.4360, 12593.16
961.5530, 12664.75
962.6690, 12891.26
963.7850, 12793.97
964.9010, 12843.00
966.0170, 13065.00
967.1330, 13018.00
968.2480, 13277.00
969.3630, 13358.00
970.4790, 13442.00
971.5940, 13909.00
972.7080, 14045.00
973.8230, 14001.00
974.9380, 14051.00
976.0520, 13915.00
977.1660, 13887.64
978.2800, 13377.00
979.3940, 13697.00
980.5080, 13408.00
981.6220, 13206.00
982.7350, 13261.00
983.8480, 12989.00
984.9610, 13152.00
986.0740, 13162.00
987.1870, 13270.00
988.3000, 13319.00
989.4120, 13322.00
990.5250, 13517.00
991.6370, 13609.00
992.7490, 13592.00
993.8610, 13910.00
994.9720, 14228.00
996.0840, 14577.00
997.1950, 15098.00
998.3060, 15709.00
999.4170, 16646.00
1000.528, 17486.00
1001.639, 18737.00
1002.750, 20116.00
1003.860, 21358.00
1004.970, 22699.00
1006.080, 23564.00
1007.190, 23515.00
1008.300, 22606.00
1009.410, 21044.00
1010.519, 19463.00
1011.628, 17876.00
1012.738, 16615.00
1013.846, 15579.00
1014.955, 15148.00
1016.064, 14716.00
1017.172, 14645.00
1018.281, 14042.00
1019.389, 14196.00
1020.497, 13878.00
1021.605, 13762.55
1022.713, 13683.00
1023.820, 13577.00
1024.928, 13603.00
1026.035, 13429.00
1027.142, 13399.00
1028.249, 13386.00
1029.356, 13282.00
1030.462, 13487.00
1031.569, 13374.00
1032.675, 13565.00
1033.781, 13384.00
1034.887, 13336.00
1035.993, 13206.00
1037.098, 13362.00
1038.204, 13427.00
1039.309, 13429.00
1040.415, 13470.00
1041.520, 13495.00
1042.624, 13587.00
1043.729, 13428.00
1044.834, 13346.00
1045.938, 13474.00
1047.042, 13662.00
1048.146, 13414.00
1049.250, 13505.00
1050.354, 13524.00
1051.458, 13567.00
1052.561, 13661.00
1053.664, 13633.00
1054.767, 13629.95
1055.870, 13597.00
1056.973, 13580.00
1058.076, 13545.00
1059.178, 13600.00
1060.281, 13607.00
1061.383, 13655.00
1062.485, 13521.00
1063.587, 13711.00
1064.688, 13478.00
1065.790, 13555.00
1066.891, 13622.00
1067.993, 13578.00
1069.094, 13650.00
1070.195, 13572.00
1071.295, 13624.00
1072.396, 13631.00
1073.496, 13645.00
1074.597, 13705.00
1075.697, 13615.00
1076.797, 13847.00
1077.897, 13482.00
1078.996, 13756.00
1080.096, 13723.00
1081.195, 13773.00
1082.294, 13870.00
1083.393, 13821.00
1084.492, 13979.00
1085.591, 14013.00
1086.689, 13871.00
1087.788, 14247.00
1088.886, 13906.00
1089.984, 14194.00
1091.082, 14067.00
1092.180, 14023.00
1093.277, 13937.00
1094.375, 13902.00
1095.472, 13858.00
1096.569, 13870.00
1097.666, 13973.00
1098.763, 13833.00
1099.860, 14020.00
1100.956, 13823.00
1102.053, 13969.00
1103.149, 13940.00
1104.245, 13967.00
1105.341, 14140.00
1106.436, 13925.00
1107.532, 14075.00
1108.627, 14126.00
1109.723, 14210.00
1110.818, 14180.00
1111.913, 14117.00
1113.007, 14127.00
1114.102, 14148.00
1115.197, 14124.54
1116.291, 14065.00
1117.385, 14092.00
1118.479, 14045.00
1119.573, 13952.00
1120.666, 14171.00
1121.760, 14039.00
1122.853, 14237.00
1123.947, 14127.00
1125.040, 13892.00
1126.132, 14101.00
1127.225, 13996.00
1128.318, 14111.00
1129.410, 14162.00
1130.502, 14276.00
1131.595, 14132.00
1132.687, 14181.00
1133.778, 14115.00
1134.870, 14309.00
1135.961, 14259.00
1137.053, 14267.00
1138.144, 14196.00
1139.235, 14340.00
1140.326, 14147.00
1141.416, 14371.00
1142.507, 14289.00
1143.597, 14350.00
1144.688, 14454.00
1145.778, 14398.00
1146.868, 14343.00
1147.957, 14467.00
1149.047, 14340.00
1150.136, 14506.00
1151.226, 14530.00
1152.315, 14447.00
1153.404, 14387.00
1154.493, 14395.00
1155.581, 14573.00
1156.670, 14628.00
1157.758, 14486.00
1158.846, 14363.00
1159.934, 14506.00
1161.022, 14431.00
1162.110, 14549.00
1163.198, 14517.00
1164.285, 14459.00
1165.372, 14646.00
1166.459, 14648.00
1167.546, 14534.00
1168.633, 14464.00
1169.720, 14563.00
1170.806, 14652.00
1171.892, 14621.00
1172.979, 14645.00
1174.065, 14585.00
1175.150, 14573.00
1176.236, 14721.00
1177.322, 14601.00
1178.407, 14678.00
1179.492, 14680.00
1180.577, 14465.00
1181.662, 14640.00
1182.747, 14640.00
1183.832, 14713.00
1184.916, 14561.00
1186.000, 14706.00
1187.084, 14771.00
1188.168, 14625.00
1189.252, 14917.00
1190.336, 15005.00
1191.419, 14750.00
1192.503, 14897.00
1193.586, 14785.00
1194.669, 14830.00
1195.752, 14850.00
1196.835, 14849.00
1197.917, 14739.00
1199.000, 14919.00
1200.082, 15099.00
1201.164, 14860.00
1202.246, 14692.00
1203.328, 15089.00
1204.409, 15033.00
1205.491, 15050.00
1206.572, 14874.00
1207.653, 15020.00
1208.734, 14996.00
1209.815, 15037.00
1210.896, 15017.00
1211.976, 15145.00
1213.057, 14995.00
1214.137, 15157.00
1215.217, 14963.00
1216.297, 15054.00
1217.377, 14999.00
1218.456, 15182.00
1219.536, 15147.00
1220.615, 15255.00
1221.694, 15004.00
1222.773, 15123.00
1223.852, 15092.00
1224.931, 15115.00
1226.009, 15082.00
1227.088, 15213.00
1228.166, 15192.00
1229.244, 15166.00
1230.322, 15043.00
1231.400, 15179.00
1232.477, 15060.00
1233.555, 15280.00
1234.632, 15311.00
1235.709, 15165.00
1236.786, 15314.00
1237.863, 15200.00
1238.939, 15371.00
1240.016, 15313.00
1241.092, 15312.00
1242.168, 15453.00
1243.245, 15484.00
1244.320, 15452.00
1245.396, 15446.00
1246.472, 15396.00
1247.547, 15602.00
1248.622, 15349.00
1249.697, 15586.00
1250.772, 15595.00
1251.847, 15533.00
1252.922, 15550.00
1253.996, 15627.00
1255.071, 15601.00
1256.145, 15818.00
1257.219, 15730.00
1258.293, 15857.00
1259.366, 16088.00
1260.440, 15696.00
1261.513, 15851.00
1262.587, 15479.00
1263.660, 15722.00
1264.733, 15710.00
1265.805, 15641.00
1266.878, 15693.00
1267.951, 15642.00
1269.023, 15713.00
1270.095, 15806.00
1271.167, 15746.00
1272.239, 15800.00
1273.311, 15803.00
1274.382, 15839.00
1275.454, 15906.00
1276.525, 15977.00
1277.596, 15968.00
1278.667, 15903.00
1279.738, 15869.00
1280.808, 15883.00
1281.879, 16086.00
1282.949, 15856.00
1284.019, 16096.00
1285.089, 15808.00
1286.159, 15748.00
1287.229, 15873.00
1288.298, 15921.00
1289.368, 15987.00
1290.437, 16056.00
1291.506, 15803.00
1292.575, 15878.00
1293.644, 16014.00
1294.712, 15880.00
1295.781, 16056.00
1296.849, 15739.00
1297.917, 15956.00
1298.985, 16199.00
1300.053, 16193.00
1301.121, 15999.00
1302.188, 16197.00
1303.255, 16132.00
1304.323, 16197.00
1305.390, 16266.00
1306.457, 16203.00
1307.523, 16256.00
1308.590, 16185.00
1309.656, 16199.00
1310.723, 16257.00
1311.789, 16152.00
1312.855, 16171.00
1313.921, 16457.00
1314.986, 16484.00
1316.052, 16325.00
1317.117, 16288.00
1318.182, 16221.00
1319.248, 16274.00
1320.312, 16265.00
1321.377, 16285.00
1322.442, 16340.00
1323.506, 16387.00
1324.571, 16446.00
1325.635, 16340.00
1326.699, 16218.00
1327.762, 16411.00
1328.826, 16443.00
1329.890, 16316.00
1330.953, 16414.00
1332.016, 16425.00
1333.079, 16404.00
1334.142, 16404.00
1335.205, 16430.95
1336.268, 16503.00
1337.330, 16513.00
1338.392, 16550.55
1339.454, 16571.00
1340.516, 16593.00
1341.578, 16607.00
1342.640, 16610.00
1343.701, 16696.00
1344.763, 16646.00
1345.824, 16820.00
1346.885, 16750.00
1347.946, 16839.00
1349.007, 16718.00
1350.067, 16732.00
1351.128, 16768.00
1352.188, 16719.00
1353.248, 16784.00
1354.308, 16752.00
1355.368, 16896.00
1356.428, 16736.00
1357.487, 16970.00
1358.547, 16894.00
1359.606, 16741.00
1360.665, 16940.00
1361.724, 16818.00
1362.783, 17029.00
1363.841, 16941.00
1364.900, 16942.00
1365.958, 16997.00
1367.016, 17077.00
1368.074, 17029.00
1369.132, 17005.00
1370.190, 17160.00
1371.247, 17054.00
1372.304, 17062.00
1373.362, 16995.00
1374.419, 16949.27
1375.476, 17278.00
1376.532, 16958.00
1377.589, 17045.00
1378.645, 17260.00
1379.702, 17003.00
1380.758, 17167.00
1381.814, 17043.00
1382.870, 17078.00
1383.925, 17140.00
1384.981, 17273.00
1386.036, 17261.00
1387.092, 17208.00
1388.147, 17222.00
1389.202, 17272.00
1390.256, 17201.00
1391.311, 17317.00
1392.365, 17277.00
1393.420, 17369.00
1394.474, 17333.00
1395.528, 17334.00
1396.582, 17350.00
1397.636, 17426.00
1398.689, 17273.00
1399.742, 17173.00
1400.796, 17370.00
1401.849, 17337.00
1402.902, 17416.00
1403.955, 17386.00
1405.007, 17482.00
1406.060, 17267.00
1407.112, 17351.00
1408.164, 17315.00
1409.216, 17377.00
1410.268, 17471.00
1411.320, 17289.00
1412.371, 17576.00
1413.423, 17364.00
1414.474, 17399.00
1415.525, 17366.00
1416.576, 17441.00
1417.627, 17422.00
1418.678, 17516.00
1419.728, 17533.00
1420.778, 17639.00
1421.829, 17492.00
1422.879, 17791.00
1423.928, 17489.00
1424.978, 17558.00
1426.028, 17687.00
1427.077, 17694.00
1428.126, 17689.00
1429.176, 17816.00
1430.225, 17649.00
1431.273, 17641.00
1432.322, 17689.00
1433.371, 17735.00
1434.419, 17742.00
1435.467, 17821.00
1436.515, 17892.00
1437.563, 17781.00
1438.611, 18017.00
1439.658, 17899.00
1440.706, 17961.00
1441.753, 17941.00
1442.800, 18017.00
1443.847, 18027.16
1444.894, 17963.00
1445.941, 18078.00
1446.987, 18061.00
1448.034, 18097.00
1449.080, 18162.00
1450.126, 18174.00
1451.172, 18213.00
1452.218, 18293.00
1453.263, 18392.00
1454.309, 18289.00
1455.354, 18288.00
1456.399, 18388.00
1457.444, 18471.00
1458.489, 18433.00
1459.534, 18511.00
1460.579, 18545.00
1461.623, 18517.00
1462.667, 18530.00
1463.711, 18424.00
1464.755, 18384.00
1465.799, 18320.00
1466.843, 18454.00
1467.886, 18362.00
1468.930, 18375.00
1469.973, 18415.00
1471.016, 18360.00
1472.059, 18436.00
1473.101, 18508.00
1474.144, 18461.00
1475.186, 18478.00
1476.229, 18326.00
1477.271, 18343.00
1478.313, 18296.00
1479.355, 18538.00
1480.396, 18438.61
1481.438, 18860.00
1482.479, 18481.00
1483.520, 18314.00
1484.561, 18501.00
1485.602, 18514.00
1486.643, 18451.00
1487.684, 18371.00
1488.724, 18406.00
1489.765, 18376.83
1490.805, 18341.00
1491.845, 18445.00
1492.885, 18502.00
1493.924, 18625.00
1494.964, 18461.00
1496.003, 18776.00
1497.042, 18477.00
1498.082, 18607.00
1499.120, 18507.00
1500.159, 18494.00
1501.198, 18757.00
1502.236, 18465.00
1503.275, 18505.00
1504.313, 18694.00
1505.351, 18744.00
1506.389, 18725.00
1507.427, 18686.00
1508.464, 18723.00
1509.502, 18690.00
1510.539, 18680.22
1511.576, 18588.00
1512.613, 18676.00
1513.650, 18678.00
1514.687, 18738.00
1515.723, 18794.00
1516.759, 18882.00
1517.796, 18763.00
1518.832, 18811.00
1519.868, 18708.00
1520.903, 18697.00
1521.939, 18601.00
1522.975, 18886.00
1524.010, 18708.00
1525.045, 18821.00
1526.080, 18800.00
1527.115, 18756.00
1528.150, 18839.00
1529.184, 18815.00
1530.219, 18740.00
1531.253, 18755.00
1532.287, 18817.00
1533.321, 18807.00
1534.355, 18779.00
1535.388, 18976.00
1536.422, 18990.00
1537.455, 18860.00
1538.488, 19032.00
1539.522, 18945.00
1540.554, 18899.75
1541.587, 18834.00
1542.620, 18835.00
1543.652, 18864.00
1544.685, 18992.00
1545.717, 18914.00
1546.749, 18844.00
1547.781, 18958.00
1548.812, 19153.00
1549.844, 19011.00
1550.875, 19009.00
1551.906, 18932.00
1552.938, 19063.00
1553.968, 19052.00
1554.999, 19073.00
1556.030, 19105.00
1557.060, 19133.54
1558.091, 19124.00
1559.121, 19169.00
1560.151, 19152.00
1561.181, 19142.30
1562.211, 19104.00
1563.240, 19110.00
1564.270, 19098.00
1565.299, 19105.00
1566.328, 19144.00
1567.357, 19037.00
1568.386, 19172.00
1569.415, 19103.00
1570.443, 19162.00
1571.472, 19268.75
1572.500, 19189.72
1573.528, 19446.00
1574.556, 19174.00
1575.584, 19146.00
1576.611, 19260.00
1577.639, 19229.00
1578.666, 19142.00
1579.693, 19390.00
##END=



