##NAMES=Zircon
##RRUFFID=R050488
##IDEAL CHEMISTRY=Zr^4+^SiO_4_
##LOCALITY=Sigulani Village, Tambani Area, Blantyre District, Nyassaland
##OWNER=RRUFF
##SOURCE=California Institute of Technology
##DESCRIPTION=Brown fragment
##STATUS=The identification of this mineral has been confirmed by X-ray diffraction and chemical analysis
##URL=rruff.info/R050488
##MEASURED CHEMISTRY=(Zr_0.99_Hf_0.01_)_Î£=1_Si_1.00_O_4_
##PIN_ID=L00554
##ORIENTATION=Laser parallel to c* (0 0 1). Fiducial mark perpendicular to laser is parallel to a [1 0 0]
63.41100, 347.0000
64.65300, 1375.000
65.89600, 1910.000
67.13800, 569.0000
68.38000, 228.0000
69.62200, 214.0000
70.86300, 225.0000
72.10500, 209.0000
73.34600, 213.0000
74.58700, 227.0000
75.82800, 212.0000
77.06900, 206.0000
78.30900, 205.0000
79.55000, 226.0000
80.79000, 206.0000
82.03000, 226.0000
83.27000, 219.0000
84.51000, 238.0000
85.74900, 247.0000
86.98900, 263.0000
88.22800, 295.0000
89.46700, 304.0000
90.70600, 364.0000
91.94400, 368.0000
93.18300, 463.0000
94.42100, 515.0000
95.65900, 650.0000
96.89700, 727.0000
98.13500, 812.0000
99.37300, 999.0000
100.6100, 1165.000
101.8480, 1354.416
103.0850, 1570.761
104.3220, 1801.000
105.5590, 2032.000
106.7950, 2288.000
108.0320, 2548.000
109.2680, 2860.000
110.5040, 3056.000
111.7400, 3400.000
112.9760, 3649.000
114.2120, 3907.000
115.4470, 4209.000
116.6820, 4497.000
117.9170, 4802.000
119.1520, 4961.134
120.3870, 5114.129
121.6220, 5238.000
122.8560, 5339.000
124.0900, 5448.000
125.3240, 5678.000
126.5580, 5669.000
127.7920, 5830.000
129.0260, 5961.000
130.2590, 5993.000
131.4920, 6146.000
132.7250, 6112.000
133.9580, 6349.000
135.1910, 6319.000
136.4230, 6365.000
137.6560, 6437.000
138.8880, 6466.000
140.1200, 6588.000
141.3520, 6668.000
142.5830, 6730.000
143.8150, 6696.000
145.0460, 6682.000
146.2770, 6750.000
147.5080, 6898.000
148.7390, 6741.000
149.9700, 6938.000
151.2000, 7015.000
152.4310, 7010.000
153.6610, 6979.000
154.8910, 7018.000
156.1210, 7124.000
157.3500, 7031.000
158.5800, 7019.000
159.8090, 7223.000
161.0380, 7187.000
162.2670, 7274.000
163.4960, 7253.139
164.7240, 7175.000
165.9530, 7155.000
167.1810, 7225.000
168.4090, 7205.000
169.6370, 7261.000
170.8650, 7340.000
172.0920, 7369.000
173.3200, 7365.000
174.5470, 7388.400
175.7740, 7340.000
177.0010, 7390.000
178.2280, 7328.000
179.4540, 7354.000
180.6810, 7446.000
181.9070, 7495.000
183.1330, 7438.000
184.3590, 7455.000
185.5850, 7518.000
186.8100, 7456.000
188.0350, 7588.000
189.2610, 7505.000
190.4860, 7641.000
191.7110, 7624.000
192.9350, 7681.000
194.1600, 7701.000
195.3840, 7863.000
196.6080, 7883.000
197.8320, 7882.000
199.0560, 8056.000
200.2800, 8011.000
201.5030, 8131.000
202.7270, 8220.000
203.9500, 8370.000
205.1730, 8331.000
206.3950, 8465.000
207.6180, 8425.000
208.8410, 8514.000
210.0630, 8640.000
211.2850, 8889.000
212.5070, 9007.000
213.7290, 9444.000
214.9500, 9655.000
216.1720, 9919.000
217.3930, 9658.000
218.6140, 9545.000
219.8350, 9256.000
221.0560, 9077.000
222.2770, 8951.979
223.4970, 8714.000
224.7170, 8745.000
225.9370, 8768.000
227.1570, 8757.000
228.3770, 8700.709
229.5970, 8692.000
230.8160, 8522.000
232.0350, 8413.000
233.2540, 8288.000
234.4730, 8262.000
235.6920, 8239.000
236.9110, 8133.000
238.1290, 8110.000
239.3470, 8274.000
240.5650, 8073.000
241.7830, 8178.000
243.0010, 8260.000
244.2180, 8226.000
245.4360, 8213.000
246.6530, 8182.000
247.8700, 8107.000
249.0870, 8245.000
250.3040, 8208.000
251.5200, 8282.000
252.7370, 8249.000
253.9530, 8273.000
255.1690, 8234.000
256.3850, 8300.000
257.6000, 8227.000
258.8160, 8263.000
260.0310, 8335.000
261.2460, 8326.000
262.4610, 8302.000
263.6760, 8432.000
264.8910, 8405.000
266.1050, 8591.000
267.3200, 8389.000
268.5340, 8349.000
269.7480, 8408.000
270.9620, 8339.000
272.1750, 8366.604
273.3890, 8470.112
274.6020, 8399.000
275.8150, 8552.000
277.0280, 8610.000
278.2410, 8571.289
279.4540, 8624.000
280.6660, 8540.000
281.8790, 8568.000
283.0910, 8590.000
284.3030, 8583.000
285.5140, 8567.000
286.7260, 8729.000
287.9380, 8689.000
289.1490, 8695.000
290.3600, 8758.000
291.5710, 8627.000
292.7820, 8640.000
293.9920, 8819.000
295.2030, 8756.000
296.4130, 8713.000
297.6230, 8726.000
298.8330, 8667.000
300.0430, 8823.000
301.2520, 8728.000
302.4620, 8814.000
303.6710, 8801.000
304.8800, 8860.000
306.0890, 8911.000
307.2980, 8902.000
308.5070, 8911.000
309.7150, 8915.000
310.9230, 8940.000
312.1310, 8795.000
313.3390, 8921.000
314.5470, 8903.000
315.7550, 8879.000
316.9620, 8973.000
318.1690, 8947.000
319.3760, 8967.252
320.5830, 9015.000
321.7900, 8977.000
322.9960, 9022.000
324.2030, 9026.000
325.4090, 9036.000
326.6150, 9116.000
327.8210, 9274.000
329.0270, 9230.000
330.2320, 9267.000
331.4380, 9128.000
332.6430, 9097.000
333.8480, 9115.000
335.0530, 9202.000
336.2580, 9193.000
337.4620, 9330.000
338.6670, 9283.000
339.8710, 9325.000
341.0750, 9395.000
342.2790, 9509.000
343.4820, 9483.000
344.6860, 9518.000
345.8890, 9679.000
347.0920, 9719.000
348.2960, 10100.00
349.4980, 10137.00
350.7010, 10414.00
351.9040, 10538.00
353.1060, 10807.00
354.3080, 11186.00
355.5100, 11506.00
356.7120, 11615.00
357.9140, 11706.00
359.1150, 11772.00
360.3170, 11479.00
361.5180, 11244.00
362.7190, 10764.00
363.9200, 10492.00
365.1200, 10126.00
366.3210, 10131.00
367.5210, 9930.000
368.7210, 9787.000
369.9210, 9697.000
371.1210, 9701.000
372.3210, 9806.000
373.5200, 9879.000
374.7200, 9795.000
375.9190, 9706.000
377.1180, 9754.000
378.3170, 9907.000
379.5150, 9647.000
380.7140, 9825.000
381.9120, 9909.000
383.1110, 9898.000
384.3090, 9855.000
385.5060, 9950.000
386.7040, 10002.00
387.9020, 10060.00
389.0990, 10115.00
390.2960, 10047.00
391.4930, 10326.00
392.6900, 10229.00
393.8860, 10331.00
395.0830, 10279.00
396.2790, 10308.00
397.4750, 10268.00
398.6710, 10296.00
399.8670, 10233.00
401.0630, 10132.00
402.2580, 10124.00
403.4540, 10240.00
404.6490, 10160.00
405.8440, 10257.00
407.0390, 10203.00
408.2330, 10129.00
409.4280, 10134.00
410.6220, 10257.00
411.8160, 10312.00
413.0100, 10418.00
414.2040, 10422.00
415.3980, 10424.00
416.5910, 10244.00
417.7850, 10416.00
418.9780, 10324.00
420.1710, 10522.00
421.3640, 10622.00
422.5560, 10685.00
423.7490, 10662.00
424.9410, 10708.00
426.1330, 10882.00
427.3250, 11010.27
428.5170, 11240.00
429.7090, 11443.00
430.9000, 11976.00
432.0910, 12251.00
433.2820, 12850.00
434.4730, 13539.00
435.6640, 14154.00
436.8550, 15132.00
438.0450, 16012.00
439.2360, 17044.00
440.4260, 17383.00
441.6160, 17417.00
442.8060, 16721.00
443.9950, 15845.00
445.1850, 14859.00
446.3740, 13710.00
447.5630, 13051.00
448.7520, 12520.00
449.9410, 11997.00
451.1300, 11661.00
452.3180, 11560.00
453.5060, 11403.00
454.6950, 11297.00
455.8830, 11147.00
457.0700, 11044.00
458.2580, 11053.00
459.4450, 11039.00
460.6330, 10984.00
461.8200, 10993.00
463.0070, 11001.00
464.1940, 10964.00
465.3800, 10975.00
466.5670, 10972.00
467.7530, 10933.00
468.9390, 10974.00
470.1250, 10983.00
471.3110, 10953.00
472.4970, 10946.00
473.6820, 11029.00
474.8680, 10933.00
476.0530, 11020.00
477.2380, 11023.00
478.4230, 10880.00
479.6070, 10914.00
480.7920, 11015.00
481.9760, 11031.00
483.1600, 10959.00
484.3440, 11224.00
485.5280, 11099.00
486.7120, 11029.00
487.8950, 11065.00
489.0780, 10911.00
490.2620, 11092.00
491.4450, 11196.00
492.6270, 11169.00
493.8100, 11097.00
494.9920, 11123.00
496.1750, 11070.00
497.3570, 11169.00
498.5390, 11148.00
499.7210, 11261.00
500.9020, 11188.00
502.0840, 11248.00
503.2650, 11311.00
504.4460, 11191.00
505.6270, 11222.00
506.8080, 11320.00
507.9890, 11175.00
509.1690, 11280.00
510.3500, 11204.00
511.5300, 11262.00
512.7100, 11364.00
513.8900, 11290.00
515.0690, 11358.00
516.2490, 11299.00
517.4280, 11321.00
518.6070, 11314.00
519.7860, 11300.00
520.9650, 11332.08
522.1440, 11488.00
523.3220, 11387.00
524.5010, 11400.00
525.6790, 11438.00
526.8570, 11668.00
528.0350, 11634.00
529.2130, 11415.00
530.3900, 11623.00
531.5670, 11508.00
532.7450, 11719.00
533.9220, 11734.00
535.0980, 11672.00
536.2750, 11678.00
537.4520, 11714.00
538.6280, 11613.00
539.8040, 11782.00
540.9800, 11582.00
542.1560, 11617.00
543.3320, 11815.00
544.5070, 11798.00
545.6830, 11787.00
546.8580, 11945.00
548.0330, 11888.00
549.2080, 11894.00
550.3830, 11923.00
551.5570, 11996.00
552.7310, 11987.00
553.9060, 11851.00
555.0800, 11960.00
556.2540, 11939.00
557.4270, 11864.00
558.6010, 11949.00
559.7740, 12038.00
560.9470, 12031.00
562.1210, 12158.00
563.2930, 11962.00
564.4660, 12077.00
565.6390, 12105.00
566.8110, 12249.00
567.9830, 12186.00
569.1550, 12138.00
570.3270, 12123.00
571.4990, 12101.00
572.6710, 12200.00
573.8420, 12156.00
575.0130, 12213.00
576.1840, 12105.00
577.3550, 12202.00
578.5260, 12209.52
579.6970, 12298.00
580.8670, 12278.00
582.0370, 12360.00
583.2070, 12360.00
584.3770, 12250.00
585.5470, 12545.00
586.7170, 12294.00
587.8860, 12424.00
589.0550, 12290.00
590.2240, 12393.00
591.3930, 12365.56
592.5620, 12303.00
593.7310, 12411.00
594.8990, 12432.00
596.0670, 12616.00
597.2350, 12449.00
598.4030, 12622.00
599.5710, 12403.00
600.7390, 12421.00
601.9060, 12457.00
603.0740, 12432.00
604.2410, 12473.00
605.4080, 12477.00
606.5740, 12544.00
607.7410, 12517.18
608.9080, 12681.57
610.0740, 12786.89
611.2400, 12836.34
612.4060, 12662.58
613.5720, 12777.05
614.7370, 12775.98
615.9030, 12770.21
617.0680, 12925.22
618.2330, 12783.90
619.3980, 12936.36
620.5630, 12971.55
621.7280, 13060.42
622.8920, 13033.03
624.0570, 13041.56
625.2210, 13166.33
626.3850, 13226.73
627.5490, 13012.00
628.7120, 13041.00
629.8760, 13005.00
631.0390, 13026.00
632.2020, 13023.00
633.3650, 13039.00
634.5280, 13059.00
635.6910, 13147.00
636.8530, 13054.00
638.0160, 13112.00
639.1780, 13158.00
640.3400, 13262.00
641.5020, 13162.00
642.6640, 13224.28
643.8250, 13282.00
644.9870, 13333.00
646.1480, 13339.00
647.3090, 13623.00
648.4700, 13267.00
649.6300, 13259.00
650.7910, 13185.00
651.9510, 13430.00
653.1120, 13318.00
654.2720, 13327.00
655.4320, 13290.00
656.5910, 13473.00
657.7510, 13464.00
658.9100, 13475.00
660.0690, 13624.00
661.2290, 13648.00
662.3880, 13535.00
663.5460, 13460.00
664.7050, 13494.00
665.8630, 13520.00
667.0220, 13500.35
668.1800, 13531.42
669.3380, 13525.00
670.4950, 13610.00
671.6530, 13652.00
672.8100, 13810.00
673.9680, 13857.00
675.1250, 13885.47
676.2820, 13713.00
677.4390, 13893.00
678.5950, 13708.00
679.7520, 13670.00
680.9080, 13806.00
682.0640, 13734.00
683.2200, 13790.00
684.3760, 13683.00
685.5320, 14008.00
686.6870, 14283.00
687.8420, 13999.00
688.9980, 14107.00
690.1530, 13873.00
691.3070, 13933.00
692.4620, 14023.00
693.6170, 13839.00
694.7710, 14071.00
695.9250, 13954.00
697.0790, 14040.00
698.2330, 14101.00
699.3870, 14167.00
700.5400, 14172.00
701.6940, 14091.00
702.8470, 14101.00
704.0000, 14155.00
705.1530, 14108.00
706.3050, 14143.00
707.4580, 14173.00
708.6100, 14131.00
709.7630, 14297.00
710.9150, 14132.00
712.0660, 14331.00
713.2180, 14221.00
714.3700, 14187.00
715.5210, 14286.00
716.6720, 14241.00
717.8240, 14286.00
718.9740, 14275.00
720.1250, 14467.00
721.2760, 14430.00
722.4260, 14522.00
723.5770, 14395.00
724.7270, 14454.00
725.8770, 14643.00
727.0260, 14411.00
728.1760, 14461.00
729.3250, 14527.00
730.4750, 14659.00
731.6240, 14598.00
732.7730, 14503.00
733.9220, 14609.00
735.0700, 14628.00
736.2190, 14645.00
737.3670, 14637.00
738.5150, 14668.00
739.6630, 14588.00
740.8110, 14751.00
741.9590, 14822.00
743.1060, 14637.00
744.2540, 14772.00
745.4010, 14828.00
746.5480, 14814.00
747.6950, 14807.00
748.8410, 14755.00
749.9880, 14810.00
751.1340, 14797.19
752.2800, 14945.00
753.4260, 14890.00
754.5720, 14914.00
755.7180, 15088.00
756.8640, 15137.00
758.0090, 15092.00
759.1540, 15149.82
760.2990, 15145.09
761.4440, 15138.00
762.5890, 15147.00
763.7340, 15142.48
764.8780, 15171.00
766.0220, 15154.00
767.1660, 15176.00
768.3100, 15204.00
769.4540, 15221.03
770.5980, 15243.00
771.7410, 15274.00
772.8840, 15229.00
774.0280, 15227.00
775.1700, 15247.00
776.3130, 15142.00
777.4560, 15305.00
778.5980, 15448.00
779.7410, 15275.00
780.8830, 15333.00
782.0250, 15531.00
783.1670, 15405.00
784.3080, 15605.00
785.4500, 15584.00
786.5910, 15459.00
787.7320, 15465.00
788.8730, 15489.00
790.0140, 15578.00
791.1550, 15543.00
792.2950, 15540.00
793.4360, 15639.00
794.5760, 15592.00
795.7160, 15672.00
796.8560, 15705.00
797.9960, 15573.00
799.1350, 15745.00
800.2750, 15733.00
801.4140, 15769.00
802.5530, 15672.00
803.6920, 15734.00
804.8310, 15941.00
805.9690, 15786.00
807.1080, 15900.00
808.2460, 15922.00
809.3840, 15691.00
810.5220, 15919.00
811.6600, 15888.00
812.7970, 15967.00
813.9350, 15978.00
815.0720, 15875.00
816.2090, 16026.00
817.3460, 16017.00
818.4830, 16150.00
819.6200, 16245.00
820.7560, 16090.00
821.8930, 16106.00
823.0290, 16191.00
824.1650, 16173.00
825.3010, 16223.00
826.4360, 16363.00
827.5720, 16243.00
828.7070, 16246.00
829.8420, 16259.00
830.9770, 16436.00
832.1120, 16375.00
833.2470, 16373.00
834.3820, 16448.00
835.5160, 16295.00
836.6500, 16529.00
837.7840, 16281.00
838.9180, 16415.00
840.0520, 16637.00
841.1860, 16593.00
842.3190, 16678.83
843.4520, 16443.00
844.5850, 16657.00
845.7180, 16568.00
846.8510, 16505.00
847.9840, 16541.00
849.1160, 16658.00
850.2490, 16788.00
851.3810, 16655.00
852.5130, 16756.73
853.6450, 16703.00
854.7760, 16772.00
855.9080, 16704.00
857.0390, 16716.00
858.1700, 16914.00
859.3010, 16863.00
860.4320, 16788.00
861.5630, 16995.00
862.6930, 16929.00
863.8240, 17039.82
864.9540, 16954.65
866.0840, 16971.37
867.2140, 16993.17
868.3440, 16979.00
869.4730, 17021.00
870.6030, 17083.00
871.7320, 17128.00
872.8610, 17138.68
873.9900, 17162.72
875.1190, 17165.00
876.2470, 17182.00
877.3760, 17233.00
878.5040, 17275.00
879.6320, 17176.00
880.7600, 17174.00
881.8880, 17331.00
883.0150, 17276.00
884.1430, 17381.00
885.2700, 17311.00
886.3970, 17316.00
887.5240, 17390.00
888.6510, 17364.00
889.7780, 17319.00
890.9040, 17458.00
892.0310, 17521.00
893.1570, 17351.00
894.2830, 17465.00
895.4090, 17629.00
896.5350, 17531.00
897.6600, 17491.00
898.7860, 17528.00
899.9110, 17642.00
901.0360, 17760.00
902.1610, 17676.00
903.2860, 17569.00
904.4100, 17626.00
905.5350, 17714.00
906.6590, 17939.00
907.7830, 17847.00
908.9070, 17948.00
910.0310, 17895.00
911.1540, 17891.00
912.2780, 17930.00
913.4010, 17949.00
914.5240, 17870.00
915.6470, 17942.00
916.7700, 17924.00
917.8930, 17887.00
919.0150, 18018.00
920.1380, 18132.00
921.2600, 18015.00
922.3820, 18061.00
923.5040, 18122.00
924.6260, 18173.00
925.7470, 18235.00
926.8690, 18137.00
927.9900, 18342.00
929.1110, 18418.00
930.2320, 18083.00
931.3530, 18137.00
932.4730, 18174.00
933.5940, 18215.00
934.7140, 18348.00
935.8340, 18508.00
936.9540, 18522.00
938.0740, 18654.00
939.1930, 18397.00
940.3130, 18355.00
941.4320, 18450.00
942.5510, 18502.00
943.6700, 18556.00
944.7890, 18572.87
945.9080, 18626.00
947.0260, 18522.00
948.1450, 18620.00
949.2630, 18499.00
950.3810, 18615.00
951.4990, 18793.00
952.6170, 18687.00
953.7340, 18774.00
954.8520, 18895.00
955.9690, 18864.00
957.0860, 18768.00
958.2030, 18866.00
959.3200, 18942.00
960.4360, 18757.00
961.5530, 18835.00
962.6690, 18956.00
963.7850, 19026.00
964.9010, 19140.00
966.0170, 19269.00
967.1330, 19306.00
968.2480, 19534.00
969.3630, 19559.00
970.4790, 20037.00
971.5940, 20419.00
972.7080, 20917.00
973.8230, 21696.00
974.9380, 22351.00
976.0520, 22518.00
977.1660, 22248.00
978.2800, 21698.00
979.3940, 21040.00
980.5080, 20306.00
981.6220, 20165.00
982.7350, 19880.00
983.8480, 19913.00
984.9610, 19988.00
986.0740, 19656.00
987.1870, 19889.00
988.3000, 19814.00
989.4120, 19999.00
990.5250, 19865.00
991.6370, 20070.00
992.7490, 20020.00
993.8610, 20077.00
994.9720, 20269.00
996.0840, 20309.00
997.1950, 20674.00
998.3060, 21026.00
999.4170, 21441.00
1000.528, 22190.00
1001.639, 23290.00
1002.750, 24924.00
1003.860, 27068.00
1004.970, 30078.00
1006.080, 34129.00
1007.190, 39255.00
1008.300, 44405.00
1009.410, 46887.00
1010.519, 44893.00
1011.628, 40252.00
1012.738, 34288.00
1013.846, 29157.00
1014.955, 25730.00
1016.064, 23719.00
1017.172, 22612.00
1018.281, 21701.00
1019.389, 21380.00
1020.497, 21019.00
1021.605, 20916.00
1022.713, 20793.00
1023.820, 20654.00
1024.928, 20634.00
1026.035, 20657.00
1027.142, 20466.00
1028.249, 20572.00
1029.356, 20519.00
1030.462, 20599.00
1031.569, 20719.00
1032.675, 20590.00
1033.781, 20584.00
1034.887, 20509.00
1035.993, 20465.00
1037.098, 20394.00
1038.204, 20681.00
1039.309, 20541.00
1040.415, 20734.00
1041.520, 20448.00
1042.624, 20637.00
1043.729, 20822.00
1044.834, 20640.00
1045.938, 20525.00
1047.042, 20776.00
1048.146, 20767.00
1049.250, 20717.00
1050.354, 20928.00
1051.458, 20790.00
1052.561, 20799.00
1053.664, 20969.00
1054.767, 20939.00
1055.870, 20955.00
1056.973, 20934.00
1058.076, 20846.00
1059.178, 20955.00
1060.281, 21016.00
1061.383, 21024.00
1062.485, 21203.00
1063.587, 21163.00
1064.688, 21148.00
1065.790, 20955.00
1066.891, 21210.00
1067.993, 21219.00
1069.094, 21084.00
1070.195, 21175.00
1071.295, 21240.00
1072.396, 21000.00
1073.496, 21167.00
1074.597, 21328.00
1075.697, 21673.00
1076.797, 22001.54
1077.897, 22493.45
1078.996, 22635.00
1080.096, 22917.00
1081.195, 22798.00
1082.294, 21436.00
1083.393, 21582.00
1084.492, 21562.00
1085.591, 21580.00
1086.689, 21695.00
1087.788, 21680.27
1088.886, 21709.61
1089.984, 21728.00
1091.082, 21712.00
1092.180, 21707.00
1093.277, 21700.48
1094.375, 21729.35
1095.472, 21754.00
1096.569, 21809.00
1097.666, 21809.00
1098.763, 21861.00
1099.860, 21910.00
1100.956, 21939.00
1102.053, 21878.00
1103.149, 21959.38
1104.245, 22038.00
1105.341, 22046.00
1106.436, 22141.00
1107.532, 22168.00
1108.627, 22196.97
1109.723, 22209.64
1110.818, 22231.00
1111.913, 22195.00
1113.007, 22175.00
1114.102, 22183.00
1115.197, 22220.00
1116.291, 22358.00
1117.385, 22236.00
1118.479, 22337.00
1119.573, 22280.00
1120.666, 22173.00
1121.760, 22266.00
1122.853, 22363.00
1123.947, 22510.00
1125.040, 22184.00
1126.132, 22439.00
1127.225, 22432.00
1128.318, 22415.00
1129.410, 22523.00
1130.502, 22556.00
1131.595, 22603.68
1132.687, 22654.00
1133.778, 22700.00
1134.870, 22549.00
1135.961, 22555.00
1137.053, 22497.00
1138.144, 22765.00
1139.235, 22815.00
1140.326, 22981.00
1141.416, 22889.53
1142.507, 22865.00
1143.597, 22812.00
1144.688, 22792.00
1145.778, 23193.00
1146.868, 23064.00
1147.957, 22991.00
1149.047, 22816.00
1150.136, 23128.00
1151.226, 23156.00
1152.315, 22904.00
1153.404, 23249.00
1154.493, 22952.00
1155.581, 23059.00
1156.670, 23259.00
1157.758, 23050.00
1158.846, 23261.00
1159.934, 23166.00
1161.022, 23182.00
1162.110, 23295.00
1163.198, 23201.00
1164.285, 23043.00
1165.372, 23145.00
1166.459, 23238.00
1167.546, 23336.00
1168.633, 23172.00
1169.720, 23370.00
1170.806, 23409.00
1171.892, 23470.00
1172.979, 23170.00
1174.065, 23371.00
1175.150, 23185.00
1176.236, 23461.00
1177.322, 23503.00
1178.407, 23508.00
1179.492, 23647.00
1180.577, 23574.00
1181.662, 23520.00
1182.747, 23423.00
1183.832, 23734.00
1184.916, 23781.00
1186.000, 24328.00
1187.084, 23698.00
1188.168, 24123.00
1189.252, 23730.00
1190.336, 23711.00
1191.419, 23580.00
1192.503, 23885.00
1193.586, 23975.00
1194.669, 23862.00
1195.752, 23879.00
1196.835, 23822.00
1197.917, 23833.00
1199.000, 23993.00
1200.082, 23887.34
1201.164, 24188.00
1202.246, 23887.00
1203.328, 23837.00
1204.409, 24018.00
1205.491, 24135.00
1206.572, 24293.00
1207.653, 24660.00
1208.734, 24151.00
1209.815, 24010.00
1210.896, 24275.00
1211.976, 24190.00
1213.057, 24409.00
1214.137, 24152.00
1215.217, 24292.00
1216.297, 24320.00
1217.377, 24271.00
1218.456, 24169.00
1219.536, 24326.00
1220.615, 24325.00
1221.694, 24358.00
1222.773, 24359.00
1223.852, 24392.40
1224.931, 24424.19
1226.009, 24447.00
1227.088, 24485.88
1228.166, 24489.48
1229.244, 24491.00
1230.322, 24529.00
1231.400, 24608.00
1232.477, 24626.00
1233.555, 24641.00
1234.632, 24518.00
1235.709, 24700.00
1236.786, 24708.00
1237.863, 24889.00
1238.939, 24960.00
1240.016, 25002.00
1241.092, 25008.57
1242.168, 24917.00
1243.245, 24856.00
1244.320, 24869.00
1245.396, 24879.92
1246.472, 24926.00
1247.547, 25010.00
1248.622, 24998.00
1249.697, 25089.00
1250.772, 25002.00
1251.847, 24911.00
1252.922, 25196.00
1253.996, 25098.00
1255.071, 24936.00
1256.145, 25135.00
1257.219, 25505.00
1258.293, 25192.00
1259.366, 25300.00
1260.440, 25271.00
1261.513, 25136.00
1262.587, 25517.00
1263.660, 25185.00
1264.733, 25383.00
1265.805, 25521.00
1266.878, 25604.00
1267.951, 25622.87
1269.023, 25485.00
1270.095, 25599.00
1271.167, 25509.00
1272.239, 25598.00
1273.311, 25650.00
1274.382, 25576.00
1275.454, 25593.00
1276.525, 25648.00
1277.596, 25485.00
1278.667, 25574.00
1279.738, 25479.00
1280.808, 25663.00
1281.879, 25667.00
1282.949, 25737.00
1284.019, 25682.00
1285.089, 25826.00
1286.159, 25637.00
1287.229, 25802.00
1288.298, 25763.00
1289.368, 25758.00
1290.437, 25847.00
1291.506, 25843.00
1292.575, 25917.00
1293.644, 25875.00
1294.712, 25863.00
1295.781, 25890.00
1296.849, 25870.00
1297.917, 26101.00
1298.985, 26166.00
1300.053, 26294.00
1301.121, 25838.00
1302.188, 26184.00
1303.255, 26142.00
1304.323, 25966.00
1305.390, 26179.00
1306.457, 26177.00
1307.523, 26250.00
1308.590, 26290.00
1309.656, 26267.00
1310.723, 26386.00
1311.789, 26238.00
1312.855, 26366.00
1313.921, 26255.00
1314.986, 26292.00
1316.052, 26332.00
1317.117, 26303.90
1318.182, 26439.00
1319.248, 26345.00
1320.312, 26476.00
1321.377, 26534.00
1322.442, 26503.00
1323.506, 26515.00
1324.571, 26327.00
1325.635, 26697.00
1326.699, 26509.00
1327.762, 26682.00
1328.826, 26536.00
1329.890, 26473.00
1330.953, 26649.00
1332.016, 26740.00
1333.079, 26613.00
1334.142, 26712.00
1335.205, 26722.52
1336.268, 26714.86
1337.330, 26813.00
1338.392, 26800.00
1339.454, 26868.00
1340.516, 27005.00
1341.578, 27076.00
1342.640, 26937.00
1343.701, 27236.00
1344.763, 27051.00
1345.824, 27206.00
1346.885, 27205.00
1347.946, 26979.00
1349.007, 27171.00
1350.067, 27276.00
1351.128, 27093.00
1352.188, 27125.00
1353.248, 27198.00
1354.308, 27259.00
1355.368, 27097.00
1356.428, 27237.00
1357.487, 27457.00
1358.547, 27197.00
1359.606, 27348.00
1360.665, 27407.00
1361.724, 27333.00
1362.783, 27424.64
1363.841, 27352.00
1364.900, 27467.00
1365.958, 27414.00
1367.016, 27452.00
1368.074, 27689.00
1369.132, 27459.00
1370.190, 27467.00
1371.247, 27645.00
1372.304, 27731.00
1373.362, 27727.00
1374.419, 27630.00
1375.476, 27643.00
1376.532, 27733.00
1377.589, 27586.00
1378.645, 27634.00
1379.702, 27763.00
1380.758, 27600.00
1381.814, 27778.00
1382.870, 27785.00
1383.925, 27789.00
1384.981, 27949.00
1386.036, 27866.00
1387.092, 27840.00
1388.147, 27720.00
1389.202, 27839.00
1390.256, 27921.00
1391.311, 27902.00
1392.365, 27838.00
1393.420, 28048.00
1394.474, 27873.00
1395.528, 27797.00
1396.582, 27948.00
1397.636, 28051.00
1398.689, 28198.00
1399.742, 28232.62
1400.796, 28244.11
1401.849, 28273.00
1402.902, 28119.00
1403.955, 28098.00
1405.007, 27908.00
1406.060, 28023.00
1407.112, 28040.00
1408.164, 28050.00
1409.216, 28312.00
1410.268, 28401.00
1411.320, 28247.00
1412.371, 28320.00
1413.423, 28119.00
1414.474, 28494.00
1415.525, 28515.00
1416.576, 28382.00
1417.627, 28306.00
1418.678, 28407.00
1419.728, 28356.72
1420.778, 28443.42
1421.829, 28405.00
1422.879, 28597.00
1423.928, 28577.00
1424.978, 28597.00
1426.028, 28570.00
1427.077, 28599.00
1428.126, 28665.00
1429.176, 28622.00
1430.225, 28697.28
1431.273, 28790.00
1432.322, 28786.00
1433.371, 28707.00
1434.419, 28723.00
1435.467, 28763.00
1436.515, 28716.00
1437.563, 28753.00
1438.611, 28758.80
1439.658, 28699.00
1440.706, 28785.00
1441.753, 28862.00
1442.800, 28874.00
1443.847, 28957.04
1444.894, 28888.00
1445.941, 29037.00
1446.987, 29057.00
1448.034, 29022.00
1449.080, 29123.00
1450.126, 29043.00
1451.172, 29065.00
1452.218, 29201.00
1453.263, 29300.00
1454.309, 29391.00
1455.354, 29179.00
1456.399, 29105.00
1457.444, 29350.00
1458.489, 29173.00
1459.534, 29274.00
1460.579, 29378.00
1461.623, 29374.02
1462.667, 29378.00
1463.711, 29492.00
1464.755, 29487.00
1465.799, 29464.00
1466.843, 29509.48
1467.886, 29582.00
1468.930, 29519.00
1469.973, 29556.00
1471.016, 29560.00
1472.059, 29497.00
1473.101, 29573.00
1474.144, 29594.45
1475.186, 29631.00
1476.229, 29689.00
1477.271, 29657.43
1478.313, 29859.91
1479.355, 29620.00
1480.396, 29739.00
1481.438, 29769.00
1482.479, 29587.00
1483.520, 29868.00
1484.561, 29542.00
1485.602, 29743.00
1486.643, 29688.81
1487.684, 29841.00
1488.724, 29684.00
1489.765, 29926.00
1490.805, 30052.00
1491.845, 29822.00
1492.885, 29790.00
1493.924, 30019.00
1494.964, 30000.00
1496.003, 29959.00
1497.042, 29973.00
1498.082, 29932.00
1499.120, 30087.00
1500.159, 30003.00
1501.198, 30017.00
1502.236, 29930.00
1503.275, 30258.00
1504.313, 30076.00
1505.351, 30280.00
1506.389, 30150.00
1507.427, 30005.00
1508.464, 30224.00
1509.502, 30306.00
1510.539, 30220.17
1511.576, 30297.98
1512.613, 30199.00
1513.650, 30201.00
1514.687, 30380.00
1515.723, 30272.00
1516.759, 30131.00
1517.796, 30212.00
1518.832, 30523.00
1519.868, 30608.00
1520.903, 30353.00
1521.939, 30303.00
1522.975, 30251.00
1524.010, 30469.00
1525.045, 30501.00
1526.080, 30271.00
1527.115, 30440.00
1528.150, 30422.00
1529.184, 30610.00
1530.219, 30537.00
1531.253, 30451.00
1532.287, 30355.00
1533.321, 30387.64
1534.355, 30436.00
1535.388, 30488.00
1536.422, 30540.59
1537.455, 30542.00
1538.488, 30640.00
1539.522, 30702.00
1540.554, 30709.00
1541.587, 30734.40
1542.620, 30840.00
1543.652, 30734.00
1544.685, 30681.00
1545.717, 30726.00
1546.749, 30868.00
1547.781, 30376.00
1548.812, 30803.00
1549.844, 30513.00
1550.875, 30682.00
1551.906, 30755.00
1552.938, 30613.00
1553.968, 30599.00
1554.999, 30798.00
1556.030, 30661.00
1557.060, 30745.00
1558.091, 30883.00
1559.121, 30749.00
1560.151, 30801.00
1561.181, 30959.00
1562.211, 30743.00
1563.240, 30698.00
1564.270, 30902.00
1565.299, 30930.00
1566.328, 31205.00
1567.357, 30832.00
1568.386, 31016.00
1569.415, 30899.00
1570.443, 30983.00
1571.472, 31259.00
1572.500, 31093.00
1573.528, 31128.00
1574.556, 30913.00
1575.584, 31100.00
1576.611, 31363.00
1577.639, 31142.00
1578.666, 31079.00
1579.693, 31241.00
##END=



