##NAMES=Zircon
##RRUFFID=R050034
##IDEAL CHEMISTRY=Zr^4+^SiO_4_
##LOCALITY=Oaxaca, Mexico
##OWNER=RRUFF
##SOURCE=University of Arizona Mineral Museum
##DESCRIPTION=Reddish brown single crystal fragments
##STATUS=The identification of this mineral has been confirmed by X-ray diffraction and chemical analysis
##URL=rruff.info/R050034
##MEASURED CHEMISTRY=Zr_1.00_Si_1.00_O_4_
##PIN_ID=M00280
##ORIENTATION=Laser parallel to -a* (-1 0 0). Fiducial mark perpendicular to laser is parallel to c [0 0 1]
121.983, 6317.000
123.377, 6288.000
124.770, 6250.000
126.163, 6201.000
127.556, 6269.000
128.949, 6265.000
130.342, 6273.000
131.734, 6360.000
133.126, 6429.000
134.518, 6420.803
135.909, 6442.495
137.301, 6425.000
138.692, 6406.000
140.083, 6418.000
141.473, 6405.000
142.864, 6374.000
144.254, 6426.000
145.644, 6505.000
147.034, 6528.000
148.423, 6342.000
149.812, 6582.000
151.201, 6633.000
152.590, 6616.678
153.979, 6982.000
155.367, 6607.000
156.755, 6646.000
158.143, 6522.000
159.530, 6614.000
160.918, 6542.000
162.305, 6670.000
163.692, 6567.000
165.078, 6668.000
166.465, 6826.000
167.851, 6616.000
169.237, 6727.000
170.623, 6576.000
172.008, 6605.000
173.393, 6592.000
174.778, 6573.000
176.163, 6640.000
177.548, 6525.000
178.932, 6654.000
180.316, 6540.000
181.700, 6594.000
183.083, 6518.000
184.467, 6506.000
185.850, 6640.000
187.233, 6528.000
188.616, 6671.000
189.998, 6714.000
191.380, 6796.476
192.762, 7038.000
194.144, 7051.000
195.525, 7395.000
196.907, 7560.000
198.288, 7728.000
199.669, 7519.000
201.049, 7162.000
202.429, 6914.000
203.810, 6784.000
205.189, 6842.000
206.569, 6700.000
207.949, 6854.000
209.328, 6902.000
210.707, 7037.000
212.085, 7100.000
213.464, 7280.000
214.842, 7692.000
216.220, 7783.000
217.598, 8087.000
218.976, 8258.000
220.353, 8264.000
221.730, 8062.000
223.107, 7610.000
224.483, 7355.000
225.860, 7017.000
227.236, 6846.000
228.612, 6720.000
229.988, 6654.000
231.363, 6615.000
232.738, 6535.000
234.113, 6515.000
235.488, 6506.000
236.863, 6493.000
238.237, 6530.000
239.611, 6424.000
240.985, 6556.000
242.359, 6438.000
243.732, 6476.000
245.105, 6458.000
246.478, 6514.000
247.851, 6451.000
249.223, 6392.000
250.595, 6521.000
251.967, 6423.000
253.339, 6449.000
254.711, 6428.000
256.082, 6353.000
257.453, 6496.000
258.824, 6392.000
260.195, 6498.000
261.565, 6425.000
262.935, 6515.000
264.305, 6491.000
265.675, 6509.000
267.044, 6560.000
268.414, 6510.000
269.783, 6645.000
271.151, 6495.000
272.520, 6554.000
273.888, 6608.000
275.256, 6512.000
276.624, 6651.000
277.992, 6623.000
279.359, 6678.000
280.726, 6625.000
282.093, 6738.000
283.460, 6788.000
284.827, 6686.000
286.193, 6820.000
287.559, 6714.000
288.925, 6848.000
290.290, 6804.000
291.656, 6812.000
293.021, 6991.000
294.386, 6885.000
295.750, 6953.000
297.115, 6920.000
298.479, 7069.000
299.843, 7050.000
301.207, 6968.000
302.570, 7126.000
303.933, 7164.000
305.296, 7323.000
306.659, 7360.000
308.022, 7483.000
309.384, 7584.000
310.746, 7494.000
312.108, 7640.000
313.470, 7670.000
314.831, 7809.000
316.193, 7893.000
317.554, 7914.000
318.914, 7992.000
320.275, 7786.000
321.635, 7987.000
322.995, 7897.000
324.355, 7916.000
325.715, 7946.000
327.074, 7944.000
328.434, 8165.000
329.792, 8025.000
331.151, 8224.000
332.510, 8197.000
333.868, 8291.000
335.226, 8503.000
336.584, 8497.000
337.941, 8871.000
339.299, 8987.000
340.656, 9246.000
342.013, 9555.000
343.370, 9964.000
344.726, 10590.000
346.082, 11320.000
347.438, 12200.000
348.794, 13060.000
350.150, 13900.000
351.505, 14200.000
352.860, 13690.000
354.215, 13180.000
355.570, 12090.000
356.924, 11430.000
358.278, 10810.000
359.632, 10340.000
360.986, 10220.000
362.339, 9799.000
363.693, 9714.000
365.046, 9695.000
366.399, 9582.000
367.751, 9661.000
369.104, 9460.000
370.456, 9521.000
371.808, 9450.000
373.159, 9456.000
374.511, 9513.000
375.862, 9404.000
377.213, 9647.000
378.564, 9440.000
379.914, 9602.000
381.265, 9659.000
382.615, 9656.000
383.965, 9840.000
385.315, 9827.688
386.664, 9848.000
388.013, 9926.000
389.362, 10000.000
390.711, 10110.000
392.060, 10040.000
393.408, 10330.000
394.756, 10170.000
396.104, 10430.000
397.451, 10570.000
398.799, 10680.000
400.146, 10870.000
401.493, 11046.459
402.840, 11249.531
404.186, 11510.000
405.533, 11730.000
406.879, 12080.000
408.225, 12390.000
409.570, 12840.000
410.916, 13150.000
412.261, 13770.000
413.606, 14230.000
414.951, 14810.000
416.295, 15930.000
417.639, 16370.000
418.983, 17760.000
420.327, 19130.000
421.671, 20820.000
423.014, 23140.000
424.357, 25887.906
425.700, 28890.000
427.043, 32820.000
428.386, 37310.000
429.728, 41930.000
431.070, 45850.000
432.412, 49850.000
433.753, 49920.000
435.095, 48890.000
436.436, 44880.000
437.777, 39040.000
439.118, 33830.000
440.458, 28540.000
441.798, 24970.000
443.138, 21510.000
444.478, 18870.000
445.818, 17370.000
447.157, 15470.000
448.496, 14730.000
449.835, 13580.000
451.174, 12840.000
452.513, 12300.000
453.851, 11620.000
455.189, 11340.000
456.527, 10800.000
457.864, 10820.000
459.202, 10380.000
460.539, 10100.000
461.876, 10080.000
463.212, 9547.000
464.549, 9643.000
465.885, 9308.000
467.221, 9233.000
468.557, 9190.000
469.893, 8944.000
471.228, 8994.000
472.563, 8640.000
473.898, 8640.000
475.233, 8648.000
476.567, 8453.000
477.902, 8501.000
479.236, 8287.000
480.570, 8230.000
481.903, 8306.000
483.237, 8056.000
484.570, 8108.000
485.903, 8061.000
487.235, 8137.000
488.568, 8123.000
489.900, 8001.000
491.232, 8087.000
492.564, 7806.000
493.896, 8064.000
495.227, 7828.000
496.558, 8011.000
497.889, 8007.000
499.220, 7882.000
500.551, 8064.000
501.881, 7966.000
503.211, 7984.000
504.541, 8054.000
505.870, 7989.000
507.200, 8056.000
508.529, 7964.000
509.858, 8038.000
511.187, 7870.000
512.515, 7902.000
513.844, 8004.000
515.172, 7937.000
516.500, 7973.000
517.827, 8012.000
519.155, 7950.930
520.482, 7959.000
521.809, 7881.000
523.136, 7847.000
524.462, 7825.000
525.789, 7936.000
527.115, 7849.000
528.441, 7725.000
529.766, 7906.000
531.092, 7865.000
532.417, 7846.000
533.742, 7840.000
535.067, 7702.000
536.391, 7898.000
537.716, 7738.000
539.040, 7931.000
540.364, 7830.000
541.688, 7767.000
543.011, 7889.000
544.334, 7854.000
545.657, 7883.000
546.980, 7712.000
548.303, 7879.000
549.625, 7886.000
550.947, 7680.000
552.269, 7801.000
553.591, 7744.000
554.913, 7662.000
556.234, 7786.000
557.555, 7582.000
558.876, 7811.000
560.197, 7616.000
561.517, 7571.000
562.837, 7711.000
564.157, 7476.000
565.477, 7680.000
566.797, 7564.000
568.116, 7604.000
569.435, 7704.000
570.754, 7463.000
572.073, 7637.000
573.391, 7533.000
574.709, 7656.000
576.027, 7630.000
577.345, 7494.000
578.663, 7616.000
579.980, 7468.000
581.297, 7561.000
582.614, 7603.000
583.931, 7470.000
585.248, 7664.000
586.564, 7501.000
587.880, 7590.000
589.196, 7578.000
590.511, 7526.000
591.827, 7602.000
593.142, 7469.000
594.457, 7713.000
595.772, 7611.000
597.086, 7530.000
598.401, 7615.000
599.715, 7554.000
601.029, 7678.000
602.343, 7514.000
603.656, 7460.000
604.969, 7670.000
606.282, 7546.000
607.595, 7709.000
608.908, 7665.000
610.220, 7598.000
611.532, 7797.000
612.844, 7544.000
614.156, 7778.000
615.468, 7667.000
616.779, 7690.000
618.090, 7872.000
619.401, 7639.000
620.712, 7810.000
622.022, 7727.000
623.332, 7695.000
624.642, 7844.000
625.952, 7725.000
627.262, 7847.000
628.571, 7721.000
629.880, 7706.000
631.189, 7894.000
632.498, 7687.000
633.807, 7741.000
635.115, 7812.000
636.423, 7758.000
637.731, 7835.000
639.039, 7689.000
640.346, 7898.000
641.653, 7675.000
642.960, 7828.000
644.267, 7838.000
645.574, 7631.000
646.880, 7880.000
648.186, 7782.000
649.492, 7810.000
650.798, 7753.000
652.103, 7737.000
653.409, 7794.000
654.714, 7738.000
656.019, 7771.000
657.323, 7814.000
658.628, 7688.000
659.932, 7956.000
661.236, 7652.000
662.540, 7856.000
663.843, 7833.000
665.147, 7689.000
666.450, 7898.000
667.753, 7816.000
669.056, 7872.000
670.358, 7836.000
671.660, 7729.000
672.963, 7895.000
674.264, 7783.000
675.566, 7777.000
676.868, 7829.000
678.169, 7705.000
679.470, 7866.000
680.771, 7649.000
682.071, 7881.000
683.372, 7817.000
684.672, 7736.000
685.972, 7945.000
687.271, 7755.000
688.571, 7851.000
689.870, 7915.000
691.169, 7700.000
692.468, 7872.000
693.767, 7715.000
695.065, 7810.000
696.364, 7796.000
697.662, 7704.000
698.960, 7836.000
700.257, 7860.000
701.555, 7867.000
702.852, 7902.000
704.149, 7782.000
705.446, 7956.000
706.742, 7804.000
708.038, 7791.000
709.335, 7905.000
710.631, 7771.000
711.926, 7991.000
713.222, 7776.000
714.517, 7842.000
715.812, 7979.000
717.107, 7748.000
718.402, 7998.000
719.696, 7786.000
720.990, 7857.000
722.284, 7885.000
723.578, 7873.000
724.872, 8013.000
726.165, 7795.000
727.458, 7894.000
728.751, 7975.000
730.044, 7813.000
731.336, 8039.000
732.629, 7759.000
733.921, 7950.000
735.213, 7905.000
736.504, 7756.000
737.796, 8036.000
739.087, 7832.000
740.378, 7792.000
741.669, 7891.000
742.960, 7779.000
744.250, 7998.000
745.540, 7883.000
746.830, 7932.000
748.120, 7928.000
749.410, 7821.000
750.699, 8013.000
751.988, 7985.000
753.277, 7964.054
754.566, 8024.000
755.854, 7894.000
757.143, 8043.000
758.431, 8000.000
759.719, 7971.000
761.006, 8090.000
762.294, 7882.000
763.581, 8102.000
764.868, 8080.000
766.155, 8021.000
767.442, 8067.000
768.728, 7890.000
770.014, 8192.000
771.300, 8131.000
772.586, 7938.000
773.872, 8183.000
775.157, 8012.000
776.442, 8153.000
777.727, 8107.000
779.012, 8003.000
780.297, 8212.000
781.581, 8017.000
782.865, 8225.000
784.149, 8230.000
785.433, 8124.000
786.716, 8302.000
787.999, 8208.000
789.282, 8132.000
790.565, 8268.000
791.848, 8150.000
793.130, 8327.000
794.413, 8197.000
795.695, 8120.000
796.977, 8232.000
798.258, 8065.000
799.540, 8234.000
800.821, 8190.000
802.102, 8115.000
803.382, 8273.000
804.663, 8066.000
805.943, 8192.000
807.224, 8077.000
808.504, 7995.000
809.783, 8194.000
811.063, 8013.000
812.342, 8083.000
813.621, 8193.000
814.900, 8095.000
816.179, 8293.000
817.457, 8139.000
818.736, 8248.000
820.014, 8162.000
821.292, 8100.000
822.569, 8373.000
823.847, 8099.000
825.124, 8250.000
826.401, 8290.000
827.678, 8167.000
828.954, 8361.000
830.231, 8186.000
831.507, 8334.000
832.783, 8444.000
834.059, 8336.000
835.334, 8535.000
836.610, 8375.000
837.885, 8421.000
839.160, 8465.000
840.435, 8276.000
841.709, 8417.000
842.983, 8384.000
844.258, 8452.000
845.532, 8573.000
846.805, 8314.000
848.079, 8475.000
849.352, 8349.000
850.625, 8344.000
851.898, 8615.000
853.171, 8346.000
854.443, 8592.000
855.715, 8886.000
856.988, 8476.000
858.259, 8576.000
859.531, 8561.000
860.803, 8645.000
862.074, 8589.000
863.345, 8462.000
864.616, 8756.000
865.886, 8573.000
867.157, 8570.000
868.427, 8771.000
869.697, 8505.000
870.967, 8733.000
872.236, 8604.000
873.506, 8687.000
874.775, 8788.000
876.044, 8766.000
877.313, 8764.000
878.581, 8722.000
879.849, 8791.000
881.118, 8873.000
882.386, 8735.000
883.653, 8902.000
884.921, 8926.000
886.188, 8817.000
887.455, 9085.000
888.722, 8908.000
889.989, 9070.000
891.255, 9115.000
892.522, 8934.000
893.788, 9155.000
895.054, 9033.000
896.319, 9093.000
897.585, 9228.000
898.850, 9050.000
900.115, 9252.000
901.380, 9189.000
902.645, 9100.000
903.909, 9411.000
905.174, 9120.000
906.438, 9197.000
907.701, 9294.000
908.965, 9100.000
910.229, 9414.000
911.492, 9176.000
912.755, 9295.000
914.018, 9384.000
915.280, 9216.000
916.543, 9441.000
917.805, 9265.000
919.067, 9330.000
920.329, 9490.000
921.590, 9333.000
922.852, 9390.000
924.113, 9396.000
925.374, 9322.000
926.635, 9582.000
927.895, 9292.000
929.156, 9547.000
930.416, 9469.000
931.676, 9363.000
932.936, 9668.000
934.195, 9402.000
935.454, 9488.000
936.714, 9484.000
937.973, 9332.000
939.231, 9688.000
940.490, 9435.000
941.748, 9412.000
943.006, 9568.000
944.264, 9410.000
945.522, 9548.000
946.780, 9589.000
948.037, 9396.000
949.294, 9668.000
950.551, 9508.000
951.808, 9536.000
953.064, 9600.000
954.320, 9486.000
955.577, 9726.000
956.832, 9610.000
958.088, 9519.000
959.344, 9825.000
960.599, 9553.000
961.854, 9888.000
963.109, 9748.000
964.364, 9721.000
965.618, 10140.000
966.872, 10220.000
968.127, 10680.000
969.380, 10590.000
970.634, 10610.000
971.888, 10620.000
973.141, 10340.000
974.394, 10160.000
975.647, 10160.000
976.900, 9837.000
978.152, 10110.000
979.404, 9831.000
980.656, 9779.000
981.908, 9936.000
983.160, 9527.000
984.411, 9920.000
985.663, 9760.000
986.914, 9679.000
988.165, 9969.000
989.415, 9606.000
990.666, 9737.000
991.916, 9795.000
993.166, 9648.000
994.416, 9923.000
995.665, 9830.000
996.915, 9974.000
998.164, 10070.000
999.413, 9860.000
1000.662, 10240.000
1001.911, 10170.000
1003.159, 10010.000
1004.407, 10120.000
1005.655, 10020.000
1006.903, 9986.000
1008.151, 10250.000
1009.398, 9870.000
1010.646, 10140.000
1011.893, 10100.000
1013.139, 10170.000
1014.386, 10330.000
1015.633, 10060.000
1016.879, 10250.000
1018.125, 10320.000
1019.371, 10100.000
1020.616, 10510.000
1021.862, 10280.000
1023.107, 10440.000
1024.352, 10670.000
1025.597, 10410.000
1026.842, 10680.000
1028.086, 10580.000
1029.330, 10450.000
1030.574, 10830.000
1031.818, 10450.000
1033.062, 10720.000
1034.305, 10760.000
1035.548, 10590.000
1036.791, 10407.531
1038.034, 10633.496
1039.277, 10760.317
1040.519, 10793.322
1041.762, 10451.523
1043.004, 10593.707
1044.246, 10541.933
1045.487, 10482.204
1046.729, 10692.507
1047.970, 10405.223
1049.211, 10611.242
1050.452, 10620.345
1051.692, 10719.571
1052.933, 10623.642
1054.173, 10587.990
1055.413, 10747.557
1056.653, 10799.030
1057.893, 10680.635
1059.132, 10785.592
1060.371, 10491.491
1061.610, 10580.000
1062.849, 10498.749
1064.088, 10640.000
1065.326, 10466.826
1066.565, 10700.910
1067.803, 10836.132
1069.041, 10877.809
1070.278, 10545.758
1071.516, 10696.297
1072.753, 10653.432
1073.990, 10602.636
1075.227, 10821.090
1076.464, 10543.396
1077.700, 10757.572
1078.936, 10775.401
1080.173, 10883.100
1081.408, 10796.194
1082.644, 10769.398
1083.880, 10937.256
1085.115, 10997.325
1086.350, 10888.019
1087.585, 11001.416
1088.820, 10716.912
1090.054, 10781.565
1091.288, 10996.868
1092.522, 10897.339
1093.756, 11014.288
1094.990, 11048.790
1096.224, 10708.605
1097.457, 11020.032
1098.690, 11049.654
1099.923, 10880.000
1101.156, 11110.000
1102.388, 11080.000
1103.621, 10920.000
1104.853, 10756.200
1106.085, 10946.104
1107.316, 11050.154
1108.548, 11072.955
1109.779, 10771.179
1111.010, 10888.533
1112.241, 10837.919
1113.472, 10780.416
1114.703, 10956.761
1115.933, 10702.200
1117.163, 10874.841
1118.393, 10876.951
1119.623, 10957.108
1120.853, 10868.261
1122.082, 10831.618
1123.311, 10964.035
1124.540, 11002.844
1125.769, 10894.545
1126.997, 10979.675
1128.226, 10719.215
1129.454, 10762.014
1130.682, 10935.654
1131.910, 10835.859
1133.138, 10924.078
1134.365, 10940.696
1135.592, 10631.893
1136.819, 10889.029
1138.046, 10901.415
1139.273, 10662.497
1140.499, 10900.246
1141.725, 10695.978
1142.951, 10649.482
1144.177, 10721.723
1145.403, 10670.186
1146.628, 10813.802
1147.854, 10769.412
1149.079, 10708.231
1150.304, 10720.354
1151.528, 10664.876
1152.753, 10714.523
1153.977, 10641.059
1155.201, 10698.440
1156.425, 10785.480
1157.649, 10645.429
1158.872, 10745.800
1160.096, 10473.335
1161.319, 10512.836
1162.542, 10518.744
1163.764, 10724.057
1164.987, 10453.413
1166.209, 10484.253
1167.431, 10643.455
1168.653, 10623.047
1169.875, 10677.735
1171.097, 10510.106
1172.318, 10551.332
1173.539, 10534.992
1174.760, 10717.577
1175.981, 10743.119
1177.202, 10550.000
1178.422, 10360.000
1179.642, 10630.000
1180.862, 10410.000
1182.082, 10410.000
1183.302, 10620.000
1184.521, 10420.000
1185.740, 10510.000
1186.959, 10630.000
1188.178, 10440.000
1189.397, 10650.000
1190.615, 10450.000
1191.834, 10460.000
1193.052, 10730.000
1194.269, 10420.000
1195.487, 10630.000
1196.705, 10730.000
1197.922, 10440.000
1199.139, 10770.000
1200.356, 10590.000
1201.573, 10660.000
1202.789, 10920.000
1204.006, 10640.000
1205.222, 10900.000
1206.438, 10870.000
1207.653, 10680.000
1208.869, 11090.000
1210.084, 10880.000
1211.299, 10850.000
1212.514, 11070.000
1213.729, 10730.000
1214.944, 10960.000
1216.158, 11100.000
1217.372, 10760.000
1218.586, 11030.000
1219.800, 10890.000
1221.014, 10840.000
1222.227, 11250.000
1223.440, 10720.000
1224.654, 10900.000
1225.866, 11080.000
1227.079, 10860.000
1228.292, 11090.000
1229.504, 10920.000
1230.716, 11050.000
1231.928, 11290.000
1233.139, 10860.000
1234.351, 11060.000
1235.562, 11030.000
1236.773, 10840.000
1237.984, 11080.000
1239.195, 11020.000
1240.406, 10870.000
1241.616, 11210.000
1242.826, 10950.000
1244.036, 10960.000
1245.246, 11180.000
1246.456, 10920.000
1247.665, 11270.000
1248.874, 11160.000
1250.083, 10990.000
1251.292, 11470.000
1252.501, 11130.000
1253.709, 11160.000
1254.917, 11440.000
1256.125, 11120.000
1257.333, 11430.000
1258.541, 11430.000
1259.748, 11260.000
1260.956, 11710.000
1262.163, 11350.000
1263.370, 11530.000
1264.576, 11730.000
1265.783, 11360.000
1266.989, 11680.000
1268.195, 11640.000
1269.401, 11430.000
1270.607, 11640.000
1271.813, 11540.000
1273.018, 11360.000
1274.223, 11550.000
1275.428, 11430.000
1276.633, 11380.000
1277.838, 11540.000
1279.042, 11280.000
1280.246, 11600.000
1281.450, 11380.000
1282.654, 11360.000
1283.858, 11600.000
1285.061, 11200.000
1286.265, 11400.000
1287.468, 11480.000
1288.671, 11200.000
1289.873, 11530.000
1291.076, 11550.000
1292.278, 11260.000
1293.480, 11670.000
1294.682, 11420.000
1295.884, 11400.000
1297.086, 11480.000
1298.287, 11190.000
1299.488, 11410.000
1300.689, 11540.000
1301.890, 11390.000
1303.091, 11650.000
1304.291, 11380.000
1305.491, 11370.000
1306.691, 11760.000
1307.891, 11110.000
1309.091, 11590.000
1310.290, 11560.000
1311.490, 11400.000
1312.689, 11690.000
1313.888, 11390.000
1315.086, 11390.000
1316.285, 11830.000
1317.483, 11450.000
1318.681, 11610.000
1319.879, 11790.000
1321.077, 11380.000
1322.275, 11730.000
1323.472, 11670.000
1324.669, 11420.000
1325.866, 11950.000
1327.063, 11520.000
1328.260, 11610.000
1329.456, 12000.000
1330.653, 11490.000
1331.849, 11770.000
1333.045, 11900.000
1334.240, 11620.000
1335.436, 12020.000
1336.631, 11910.000
1337.826, 11710.000
1339.021, 12100.000
1340.216, 11880.000
1341.411, 11990.000
1342.605, 12030.000
1343.799, 11790.000
1344.993, 12220.000
1346.187, 12120.000
1347.381, 11740.000
1348.574, 12250.000
1349.767, 12000.000
1350.961, 11910.000
1352.153, 12170.000
1353.346, 12030.000
1354.539, 12020.000
1355.731, 12240.000
1356.923, 11750.000
1358.115, 12240.000
1359.307, 12100.000
1360.498, 11930.000
1361.690, 12470.000
1362.881, 12110.000
1364.072, 12020.000
1365.263, 12580.000
1366.453, 12000.000
1367.644, 12200.000
1368.834, 12290.000
1370.024, 11880.000
1371.214, 12360.000
1372.404, 12050.000
1373.593, 11940.000
1374.783, 12400.000
1375.972, 12120.000
1377.161, 12170.000
1378.349, 12540.000
1379.538, 12130.000
1380.726, 12520.000
1381.915, 12580.000
1383.103, 12140.000
1384.290, 12820.000
1385.478, 12480.000
1386.665, 12450.000
1387.853, 12680.000
1389.040, 12400.000
1390.227, 12500.000
1391.413, 12730.000
1392.600, 12460.000
1393.786, 12820.000
1394.972, 12770.000
1396.158, 12450.000
1397.344, 12870.000
1398.530, 12620.000
1399.715, 12590.000
1400.900, 12930.000
1402.085, 12600.000
1403.270, 12960.000
1404.455, 13160.000
1405.639, 12500.000
1406.824, 13100.000
1408.008, 12824.451
1409.192, 13197.148
1410.375, 13412.479
1411.559, 13478.919
1412.742, 12950.474
1413.925, 13190.188
1415.108, 13122.057
1416.291, 13041.303
1417.474, 13389.130
1418.656, 12947.197
1419.839, 13288.228
1421.021, 13316.707
1422.202, 13488.217
1423.384, 13349.994
1424.566, 13307.441
1425.747, 13574.720
1426.928, 13670.437
1428.109, 13496.546
1429.290, 13677.148
1430.470, 13224.372
1431.651, 13327.396
1432.831, 13670.207
1434.011, 13511.878
1435.191, 13698.133
1436.370, 13753.140
1437.550, 13211.746
1438.729, 13707.562
1439.908, 13754.812
1441.087, 13341.487
1442.266, 13801.763
1443.444, 13451.922
1444.623, 13391.250
1445.801, 13548.178
1446.979, 13478.254
1448.157, 13765.987
1449.334, 13709.152
1450.512, 13621.544
1451.689, 13668.271
1452.866, 13591.101
1454.043, 13706.599
1455.220, 13596.457
1456.396, 13726.113
1457.573, 13910.137
1458.749, 13677.947
1459.925, 13886.382
1461.100, 13411.501
1462.276, 13508.377
1463.451, 13543.676
1464.627, 13944.431
1465.802, 13472.882
1466.977, 13553.861
1468.151, 13870.088
1469.326, 13857.146
1470.500, 13981.822
1471.674, 13699.051
1472.848, 13799.048
1474.022, 13793.538
1475.195, 14152.598
1476.369, 14223.850
1477.542, 13947.981
1478.715, 13673.582
1479.888, 14058.880
1481.061, 13818.912
1482.233, 13916.256
1483.405, 13665.215
1484.577, 13714.979
1485.749, 13759.972
1486.921, 13959.165
1488.093, 13940.961
1489.264, 14028.909
1490.435, 14016.482
1491.606, 14107.317
1492.777, 14186.666
1493.948, 14241.505
1495.118, 14184.040
1496.288, 14336.494
1497.459, 14041.341
1498.628, 13916.010
1499.798, 13911.426
1500.968, 14476.660
1502.137, 14512.244
1503.306, 13914.749
1504.475, 14454.862
1505.644, 14210.000
1506.813, 14280.000
1507.981, 14730.000
1509.149, 14100.000
1510.318, 14230.000
1511.485, 14570.000
1512.653, 13840.000
1513.821, 14350.000
1514.988, 14350.000
1516.155, 14010.000
##END=



