##NAMES=Zoisite
##RRUFFID=R050041
##IDEAL CHEMISTRY=Ca_2_Al_3_(Si_2_O_7_)(SiO_4_)O(OH)
##LOCALITY=Franklin County, Conway, Massachussetts, USA
##OWNER=RRUFF
##SOURCE=University of Arizona Mineral Museum
##DESCRIPTION=Tan colored fragment
##STATUS=The identification of this mineral has been confirmed by X-ray diffraction and chemical analysis
##URL=rruff.info/R050041
##MEASURED CHEMISTRY=(Ca_.993_Mg_.004_Na_.002_Mn_.001_)_2_(Al_.980_Fe^3+^_.020_)_3_(Si_.986_Fe^3+^_.014_)_3_O_12_(OH)
##PIN_ID=L00503
##ORIENTATION=Laser parallel to -c* (0 0 -1). Fiducial mark perpendicular to laser is parallel to a [1 0 0]
111.223, 21370.000
112.613, 21870.000
114.002, 21950.000
115.391, 22310.000
116.780, 22090.000
118.168, 22540.000
119.556, 22190.000
120.944, 22220.000
122.332, 22310.000
123.720, 22180.000
125.107, 22200.000
126.495, 22400.000
127.882, 22200.000
129.268, 22380.000
130.655, 22370.000
132.041, 22360.000
133.427, 22440.000
134.813, 22690.000
136.199, 22720.000
137.584, 22870.000
138.970, 23000.000
140.355, 23030.000
141.740, 23300.000
143.124, 23310.000
144.509, 23600.000
145.893, 23450.000
147.277, 23590.000
148.660, 23720.000
150.044, 23410.000
151.427, 23720.000
152.810, 23510.000
154.193, 23340.000
155.576, 23660.000
156.958, 23530.000
158.341, 23630.000
159.723, 23480.000
161.105, 23880.000
162.486, 23800.000
163.867, 23830.000
165.249, 23790.000
166.630, 23770.000
168.010, 24090.000
169.391, 23940.000
170.771, 24290.000
172.151, 24020.000
173.531, 24340.000
174.911, 24110.000
176.290, 24350.000
177.669, 24390.000
179.049, 24380.000
180.427, 24530.000
181.806, 24640.000
183.184, 24820.000
184.562, 24780.000
185.940, 24880.000
187.318, 25250.000
188.696, 25180.000
190.073, 25240.000
191.450, 25160.000
192.827, 25200.582
194.204, 25450.000
195.580, 25270.000
196.956, 25430.000
198.332, 25497.432
199.708, 25540.000
201.084, 25450.000
202.459, 25480.000
203.834, 25250.000
205.209, 25680.000
206.584, 25850.000
207.958, 25650.000
209.333, 25690.000
210.707, 25890.000
212.081, 25940.000
213.454, 25880.000
214.828, 25820.000
216.201, 26130.000
217.574, 25910.000
218.947, 26140.000
220.320, 26030.000
221.692, 26190.000
223.064, 26240.000
224.436, 26170.000
225.808, 26190.000
227.179, 26190.000
228.551, 26370.000
229.922, 26420.000
231.293, 26530.000
232.663, 26510.000
234.034, 26500.000
235.404, 26540.000
236.774, 26700.000
238.144, 26870.000
239.514, 27500.000
240.883, 27420.000
242.252, 27560.000
243.621, 27220.000
244.990, 27220.000
246.359, 27110.000
247.727, 27290.000
249.095, 27660.000
250.463, 27890.000
251.831, 27680.000
253.198, 27530.000
254.566, 27630.000
255.933, 27730.000
257.299, 27870.000
258.666, 27810.000
260.033, 27960.000
261.399, 27980.000
262.765, 27890.000
264.131, 27900.000
265.496, 27820.000
266.862, 27820.000
268.227, 27840.000
269.592, 27950.000
270.957, 28040.000
272.321, 27810.000
273.685, 28230.000
275.050, 28210.000
276.413, 28110.000
277.777, 28560.000
279.141, 28260.000
280.504, 28640.000
281.867, 28550.000
283.230, 28610.000
284.592, 28660.000
285.955, 28610.000
287.317, 28440.000
288.679, 28620.000
290.041, 28850.000
291.403, 28600.000
292.764, 28880.000
294.125, 28750.000
295.486, 28810.000
296.847, 28750.000
298.207, 28740.000
299.568, 29010.000
300.928, 29020.000
302.288, 29050.000
303.647, 29140.000
305.007, 29240.000
306.366, 29170.000
307.725, 29410.000
309.084, 29540.000
310.443, 29640.000
311.801, 29500.000
313.159, 29720.000
314.517, 29430.000
315.875, 29560.000
317.233, 29770.000
318.590, 29750.000
319.947, 29670.000
321.304, 29640.000
322.661, 29754.486
324.018, 29804.230
325.374, 30040.000
326.730, 30120.000
328.086, 30280.000
329.442, 30414.117
330.797, 30420.000
332.153, 30650.000
333.508, 30710.000
334.863, 30820.000
336.217, 31130.000
337.572, 30730.000
338.926, 30810.000
340.280, 31030.000
341.634, 30980.000
342.988, 30800.000
344.341, 31030.000
345.694, 30810.000
347.047, 31070.000
348.400, 30880.000
349.753, 31010.000
351.105, 30890.000
352.457, 30780.000
353.809, 30740.000
355.161, 31050.000
356.512, 30910.000
357.864, 31030.000
359.215, 30950.000
360.566, 30970.000
361.916, 31066.016
363.267, 30930.000
364.617, 31240.000
365.967, 31210.000
367.317, 31280.000
368.667, 31510.000
370.016, 31120.000
371.366, 31660.000
372.715, 31250.000
374.064, 31540.000
375.412, 31440.000
376.761, 31490.000
378.109, 31750.000
379.457, 31520.000
380.805, 31740.000
382.152, 31680.000
383.500, 31890.000
384.847, 31920.000
386.194, 31750.000
387.541, 32010.000
388.887, 32020.000
390.233, 32290.000
391.580, 32180.000
392.926, 32040.000
394.271, 32500.000
395.617, 32150.000
396.962, 32450.000
398.307, 32480.000
399.652, 32520.000
400.997, 32420.000
402.341, 32530.072
403.686, 32510.000
405.030, 32680.000
406.374, 32700.000
407.717, 32790.000
409.061, 32790.000
410.404, 32910.000
411.747, 32910.000
413.090, 33240.000
414.433, 33360.000
415.775, 33200.000
417.117, 33660.000
418.459, 33660.000
419.801, 33320.000
421.143, 33550.000
422.484, 33490.000
423.825, 33540.000
425.166, 33520.000
426.507, 33490.000
427.848, 33530.000
429.188, 33500.000
430.528, 33640.000
431.868, 33780.000
433.208, 33690.000
434.547, 33670.000
435.887, 33910.000
437.226, 33780.000
438.565, 33790.000
439.904, 33990.000
441.242, 33900.000
442.580, 34030.000
443.918, 34060.000
445.256, 34040.000
446.594, 34280.000
447.932, 33900.000
449.269, 34260.000
450.606, 33930.000
451.943, 34260.000
453.280, 34310.000
454.616, 34480.000
455.952, 34582.758
457.288, 34160.000
458.624, 34640.000
459.960, 34320.000
461.295, 34180.000
462.631, 34750.000
463.966, 34340.000
465.300, 34580.000
466.635, 34100.000
467.969, 34980.000
469.304, 34930.000
470.638, 34970.000
471.972, 35280.000
473.305, 34830.000
474.639, 35050.000
475.972, 35250.000
477.305, 35360.000
478.638, 35690.000
479.970, 35540.000
481.303, 35860.000
482.635, 36510.000
483.967, 36390.000
485.298, 36690.000
486.630, 37260.000
487.961, 37100.000
489.293, 37300.000
490.624, 37370.000
491.954, 37300.000
493.285, 36600.000
494.615, 36800.000
495.945, 36140.000
497.275, 36280.000
498.605, 35910.000
499.935, 35980.000
501.264, 35920.000
502.593, 35930.000
503.922, 35910.000
505.251, 35960.000
506.579, 36120.000
507.908, 36170.000
509.236, 35820.000
510.564, 36160.000
511.891, 35990.000
513.219, 35850.000
514.546, 36160.000
515.873, 36180.000
517.200, 36240.000
518.527, 36130.000
519.853, 36600.000
521.180, 36670.000
522.506, 36560.000
523.832, 36620.000
525.157, 36590.000
526.483, 36542.148
527.808, 36820.000
529.133, 36460.000
530.458, 36820.000
531.783, 36800.000
533.107, 36560.000
534.431, 36960.000
535.756, 36630.000
537.079, 36900.000
538.403, 36700.000
539.727, 37110.000
541.050, 36810.000
542.373, 36750.000
543.696, 37210.000
545.018, 37020.000
546.341, 37150.000
547.663, 36890.000
548.985, 37260.000
550.307, 37260.000
551.629, 37120.000
552.950, 36950.000
554.271, 37110.000
555.592, 37480.000
556.913, 37520.000
558.234, 37340.000
559.554, 37940.000
560.875, 37290.000
562.195, 37890.000
563.514, 38190.000
564.834, 37890.000
566.154, 38500.000
567.473, 38530.000
568.792, 38850.000
570.111, 39090.000
571.429, 38410.000
572.748, 38880.000
574.066, 38470.000
575.384, 38430.000
576.702, 38150.000
578.019, 38140.000
579.337, 38290.000
580.654, 37950.000
581.971, 38410.000
583.288, 38210.000
584.605, 37920.000
585.921, 38160.000
587.237, 38510.000
588.553, 38330.000
589.869, 38320.000
591.185, 38350.000
592.500, 38430.000
593.815, 38440.000
595.130, 38432.039
596.445, 38860.000
597.760, 38310.000
599.074, 38530.000
600.389, 38350.000
601.703, 38970.000
603.016, 38470.000
604.330, 38580.000
605.644, 38620.000
606.957, 38590.000
608.270, 38940.000
609.583, 38980.000
610.895, 38840.000
612.208, 39120.000
613.520, 38840.000
614.832, 39310.000
616.144, 39140.000
617.455, 39050.000
618.767, 39480.000
620.078, 39420.000
621.389, 39000.000
622.700, 39680.000
624.011, 39390.000
625.321, 39580.000
626.631, 39200.000
627.941, 39780.000
629.251, 39420.000
630.561, 39470.000
631.870, 39740.000
633.180, 39560.000
634.489, 39220.000
635.798, 39660.000
637.106, 39430.000
638.415, 39700.000
639.723, 39610.000
641.031, 39680.000
642.339, 39670.000
643.647, 39910.000
644.954, 40100.000
646.261, 39950.000
647.568, 39830.000
648.875, 40160.000
650.182, 40400.000
651.488, 40210.000
652.795, 40230.000
654.101, 40310.000
655.407, 40450.000
656.712, 40250.000
658.018, 40600.000
659.323, 40250.000
660.628, 40910.000
661.933, 40420.000
663.238, 40590.000
664.542, 40890.000
665.847, 40870.000
667.151, 41150.000
668.455, 40950.000
669.758, 41590.000
671.062, 41290.000
672.365, 41360.000
673.668, 42020.000
674.971, 42180.000
676.274, 42010.000
677.577, 41890.000
678.879, 41570.000
680.181, 41850.000
681.483, 41400.000
682.785, 41640.000
684.086, 41590.000
685.388, 41230.000
686.689, 41810.000
687.990, 41400.000
689.290, 41530.000
690.591, 41660.000
691.891, 41270.000
693.192, 41497.426
694.491, 41570.000
695.791, 41610.000
697.091, 41720.000
698.390, 41820.000
699.689, 41827.152
700.988, 41900.000
702.287, 41830.000
703.586, 41860.000
704.884, 41810.000
706.182, 41730.000
707.480, 41890.000
708.778, 42000.000
710.076, 42080.000
711.373, 41880.000
712.670, 42680.000
713.968, 41930.000
715.264, 42160.000
716.561, 42450.000
717.857, 41930.000
719.154, 42430.000
720.450, 42340.000
721.746, 42320.000
723.041, 42330.000
724.337, 42490.000
725.632, 42690.000
726.927, 42430.000
728.222, 42570.000
729.517, 43070.000
730.811, 42180.000
732.105, 43220.000
733.400, 42590.000
734.693, 43260.000
735.987, 42740.000
737.281, 42660.000
738.574, 42900.000
739.867, 43010.000
741.160, 43030.000
742.453, 43120.000
743.745, 43210.000
745.038, 43240.000
746.330, 43340.000
747.622, 43380.000
748.913, 43360.000
750.205, 43280.000
751.496, 43630.000
752.788, 43830.000
754.079, 43580.000
755.369, 43310.000
756.660, 43540.000
757.950, 43377.082
759.241, 43660.000
760.531, 43440.000
761.820, 43800.000
763.110, 43870.000
764.399, 44030.000
765.689, 43680.000
766.978, 43830.000
768.267, 44090.000
769.555, 43930.000
770.844, 44250.000
772.132, 44020.000
773.420, 44080.000
774.708, 44570.000
775.996, 44350.000
777.283, 44540.000
778.570, 44210.000
779.857, 44230.000
781.144, 44580.000
782.431, 44170.000
783.718, 44390.000
785.004, 44650.000
786.290, 44630.000
787.576, 44700.000
788.862, 44820.000
790.147, 44330.000
791.433, 44840.000
792.718, 44950.000
794.003, 44580.000
795.288, 44740.000
796.572, 44830.000
797.857, 45220.000
799.141, 44640.000
800.425, 44880.000
801.709, 45070.000
802.992, 44760.000
804.276, 45320.000
805.559, 44960.000
806.842, 44900.000
808.125, 45390.000
809.407, 44780.000
810.690, 45480.000
811.972, 45150.000
813.254, 45450.000
814.536, 45640.000
815.818, 45380.000
817.099, 45720.000
818.381, 45720.000
819.662, 45970.000
820.943, 45860.000
822.223, 45710.000
823.504, 45980.000
824.784, 45660.000
826.065, 45950.000
827.345, 45770.000
828.624, 45970.000
829.904, 46340.000
831.183, 46000.000
832.462, 45870.000
833.741, 46470.000
835.020, 46080.000
836.299, 46470.000
837.577, 46380.000
838.856, 45970.000
840.134, 46270.000
841.412, 46172.750
842.689, 46770.000
843.967, 46440.000
845.244, 46840.000
846.521, 47150.000
847.798, 46570.000
849.075, 47010.000
850.351, 46690.000
851.628, 46530.000
852.904, 47430.000
854.180, 46830.000
855.455, 47280.000
856.731, 47180.000
858.006, 47460.000
859.281, 47720.000
860.556, 47420.000
861.831, 47840.000
863.106, 47870.000
864.380, 47830.000
865.655, 48150.000
866.929, 48330.000
868.202, 48350.750
869.476, 48940.000
870.750, 48300.000
872.023, 48620.000
873.296, 48290.000
874.569, 48480.000
875.842, 48130.000
877.114, 48610.000
878.386, 48130.000
879.658, 48130.000
880.930, 48600.000
882.202, 48470.000
883.474, 48580.000
884.745, 48380.000
886.016, 48810.000
887.287, 48570.000
888.558, 48490.000
889.829, 48750.000
891.099, 48400.000
892.369, 49050.000
893.639, 48340.000
894.909, 48590.000
896.179, 48880.000
897.448, 48460.000
898.718, 49130.000
899.987, 48920.000
901.256, 49300.000
902.524, 49320.000
903.793, 48820.000
905.061, 49530.000
906.329, 49470.000
907.597, 48850.000
908.865, 49890.000
910.133, 49260.000
911.400, 49810.000
912.667, 49490.000
913.934, 50050.000
915.201, 50260.000
916.468, 49890.000
917.734, 50340.000
919.001, 50160.000
920.267, 50760.000
921.532, 50970.000
922.798, 51340.000
924.064, 51210.000
925.329, 51620.000
926.594, 50960.000
927.859, 51910.000
929.124, 50690.000
930.388, 51260.000
931.653, 50740.000
932.917, 50870.000
934.181, 50900.000
935.445, 50960.000
936.708, 50490.000
937.972, 50450.000
939.235, 50820.000
940.498, 50420.000
941.761, 51090.000
943.024, 50670.000
944.286, 50620.000
945.548, 50940.000
946.811, 50740.000
948.072, 51160.000
949.334, 50800.000
950.596, 51160.000
951.857, 50730.000
953.118, 50780.000
954.379, 51230.000
955.640, 50830.000
956.901, 51100.000
958.161, 51050.000
959.421, 50610.000
960.681, 51580.000
961.941, 50840.000
963.201, 51220.000
964.460, 51200.000
965.720, 50700.000
966.979, 51360.000
968.238, 51320.000
969.496, 51300.000
970.755, 51340.000
972.013, 51397.164
973.272, 52120.000
974.529, 51680.000
975.787, 52050.000
977.045, 52410.000
978.302, 52210.000
979.560, 52750.000
980.817, 52540.000
982.073, 52350.000
983.330, 52870.000
984.587, 52080.000
985.843, 52930.000
987.099, 52330.000
988.355, 52110.000
989.611, 52200.000
990.866, 52070.000
992.122, 52010.000
993.377, 52290.000
994.632, 52020.000
995.887, 52500.000
997.141, 52250.000
998.396, 52180.000
999.650, 52280.000
1000.904, 51890.000
1002.158, 52420.000
1003.412, 52290.000
1004.665, 52230.000
1005.918, 52180.000
1007.172, 52240.000
1008.425, 52010.000
1009.677, 52760.000
1010.930, 52370.000
1012.182, 52550.000
1013.434, 52930.000
1014.687, 52470.000
1015.938, 52800.000
1017.190, 53190.000
1018.441, 52520.000
1019.693, 53700.000
1020.944, 52680.000
1022.195, 53190.000
1023.445, 53020.000
1024.696, 52850.000
1025.946, 53410.000
1027.197, 53160.000
1028.446, 52900.000
1029.696, 53940.000
1030.946, 52840.000
1032.195, 53730.000
1033.445, 53340.000
1034.694, 53710.000
1035.942, 53540.000
1037.191, 53190.000
1038.440, 53740.000
1039.688, 53950.000
1040.936, 53400.000
1042.184, 54510.000
1043.432, 54130.000
1044.679, 53900.000
1045.927, 54540.000
1047.174, 53790.000
1048.421, 55100.000
1049.668, 54350.000
1050.914, 54090.000
1052.161, 55360.000
1053.407, 54840.000
1054.653, 54360.000
1055.899, 55270.000
1057.145, 54560.000
1058.391, 55390.000
1059.636, 55080.000
1060.881, 55190.000
1062.126, 55800.000
1063.371, 55090.000
1064.615, 56350.000
1065.860, 56010.000
1067.104, 56160.000
1068.348, 56480.000
1069.592, 56640.000
1070.836, 56730.000
1072.079, 56940.000
1073.323, 56370.000
1074.566, 56080.000
1075.809, 56370.000
1077.052, 55720.000
1078.294, 56480.000
1079.537, 55720.000
1080.779, 55900.000
1082.021, 56130.000
1083.263, 55940.000
1084.504, 56330.000
1085.746, 56470.000
1086.987, 56220.000
1088.228, 57150.000
1089.469, 56600.000
1090.710, 57310.000
1091.951, 56990.000
1093.191, 56300.000
1094.431, 57390.000
1095.671, 56070.000
1096.911, 56200.000
1098.151, 56060.000
1099.390, 56300.000
1100.630, 55890.000
1101.869, 56080.000
1103.108, 56140.000
1104.346, 55750.000
1105.585, 56090.000
1106.823, 56080.000
1108.062, 56480.000
1109.300, 56070.000
1110.537, 56510.000
1111.775, 56470.000
1113.013, 56230.000
1114.250, 56480.000
1115.487, 56180.000
1116.724, 56480.000
1117.961, 56380.000
1119.197, 56630.000
1120.434, 56870.000
1121.670, 56410.000
1122.906, 56650.000
1124.142, 57110.000
1125.377, 56500.000
1126.613, 56920.000
1127.848, 56680.000
1129.083, 56890.000
1130.318, 56830.000
1131.553, 56960.000
1132.787, 56900.000
1134.022, 56800.000
1135.256, 57140.000
1136.490, 57350.000
1137.724, 56870.000
1138.957, 57080.000
1140.191, 57290.000
1141.424, 57330.000
1142.657, 57560.000
1143.890, 57390.000
1145.123, 57110.000
1146.355, 57550.000
1147.588, 57970.000
1148.820, 57190.000
1150.052, 57430.000
1151.284, 57830.000
1152.516, 57590.000
1153.747, 57840.000
##END=



