##NAMES=Andalusite
##RRUFFID=R050258
##IDEAL CHEMISTRY=Al_2_SiO_5_
##LOCALITY=Bautista Canyon, near Hemet, Riverside County, California, USA
##OWNER=RRUFF
##SOURCE=Marcus Origlieri
##DESCRIPTION=Brown fragment
##STATUS=The identification of this mineral has been confirmed by X-ray diffraction and chemical analysis
##URL=rruff.info/R050258
##MEASURED CHEMISTRY=Al_2.00_Si_1.00_O_5_
124.050, 3796.000
125.445, 3875.000
126.839, 3863.000
128.232, 3906.000
129.626, 3928.000
131.019, 3912.000
132.412, 3946.000
133.805, 3920.000
135.198, 3956.000
136.590, 3992.000
137.982, 4015.000
139.374, 4063.000
140.766, 4020.000
142.157, 4022.000
143.549, 4063.000
144.940, 4139.000
146.330, 4099.000
147.721, 3998.000
149.111, 4082.000
150.501, 4080.000
151.891, 4132.000
153.281, 4126.000
154.670, 4163.000
156.059, 4152.000
157.448, 4170.000
158.837, 4157.000
160.225, 4136.000
161.614, 4167.000
163.002, 4229.000
164.390, 4179.000
165.777, 4244.000
167.164, 4216.000
168.552, 4322.000
169.938, 4147.000
171.325, 4243.000
172.711, 4280.000
174.098, 4234.000
175.484, 4281.000
176.869, 4187.000
178.255, 4331.000
179.640, 4273.000
181.025, 4261.000
182.410, 4373.000
183.795, 4325.000
185.179, 4330.000
186.563, 4313.000
187.947, 4396.000
189.331, 4371.000
190.714, 4337.000
192.097, 4390.000
193.480, 4347.000
194.863, 4438.000
196.246, 4424.000
197.628, 4407.000
199.010, 4338.000
200.392, 4461.000
201.774, 4453.000
203.155, 4441.000
204.536, 4455.000
205.917, 4447.000
207.298, 4567.000
208.678, 4450.000
210.059, 4452.000
211.439, 4546.000
212.819, 4475.000
214.198, 4524.000
215.577, 4446.000
216.957, 4526.000
218.336, 4616.000
219.714, 4555.000
221.093, 4598.000
222.471, 4521.000
223.849, 4589.000
225.227, 4570.000
226.604, 4569.000
227.982, 4567.000
229.359, 4554.000
230.736, 4587.000
232.112, 4575.000
233.489, 4655.000
234.865, 4671.667
236.241, 4750.000
237.617, 4770.000
238.992, 4830.000
240.367, 4923.000
241.742, 4881.000
243.117, 4957.000
244.492, 4905.000
245.866, 4878.000
247.240, 4911.237
248.614, 4891.000
249.988, 4942.000
251.362, 4931.000
252.735, 4965.000
254.108, 5003.000
255.481, 4885.000
256.853, 4972.000
258.226, 4890.000
259.598, 4929.000
260.970, 4903.000
262.341, 5069.000
263.713, 5009.000
265.084, 4995.000
266.455, 4995.000
267.826, 4928.000
269.197, 5078.000
270.567, 5233.000
271.937, 5458.000
273.307, 5797.000
274.677, 6053.000
276.046, 6438.000
277.415, 6477.000
278.784, 6640.000
280.153, 7104.000
281.522, 7542.000
282.890, 8604.000
284.258, 9755.000
285.626, 11730.000
286.993, 13720.000
288.361, 15970.000
289.728, 18100.000
291.095, 18870.000
292.462, 17910.000
293.828, 15420.000
295.195, 12780.000
296.561, 10400.000
297.927, 8800.000
299.292, 7775.000
300.658, 6969.000
302.023, 6696.000
303.388, 6431.000
304.753, 6165.000
306.117, 6063.000
307.481, 5894.000
308.846, 5914.000
310.209, 5833.000
311.573, 6074.000
312.936, 6349.000
314.300, 6871.000
315.663, 7732.000
317.025, 8665.000
318.388, 10020.000
319.750, 10920.000
321.112, 11270.000
322.474, 10330.000
323.836, 9201.000
325.197, 8214.000
326.558, 7466.000
327.919, 7194.000
329.280, 7000.000
330.640, 6839.000
332.001, 6808.000
333.361, 6660.000
334.721, 6716.000
336.080, 6629.000
337.440, 6512.000
338.799, 6492.000
340.158, 6351.000
341.517, 6396.000
342.875, 6208.000
344.233, 6229.000
345.591, 6159.000
346.949, 6218.000
348.307, 6274.000
349.664, 6301.000
351.022, 6789.000
352.379, 6968.000
353.735, 7736.000
355.092, 8354.000
356.448, 8932.000
357.804, 9548.000
359.160, 9303.000
360.516, 9086.000
361.871, 8316.000
363.226, 7714.000
364.581, 7310.000
365.936, 6802.000
367.291, 6676.000
368.645, 6409.000
369.999, 6237.000
371.353, 6190.000
372.707, 5982.000
374.060, 6030.000
375.413, 5881.000
376.766, 5950.000
378.119, 5801.000
379.472, 5888.000
380.824, 5938.000
382.176, 5855.000
383.528, 5948.000
384.880, 5864.000
386.231, 5850.000
387.582, 5826.000
388.933, 5742.000
390.284, 5770.000
391.635, 5665.000
392.985, 5717.000
394.335, 5744.000
395.685, 5670.000
397.035, 5706.000
398.384, 5643.000
399.733, 5711.000
401.083, 5680.000
402.431, 5661.000
403.780, 5687.000
405.128, 5633.000
406.476, 5675.000
407.824, 5675.000
409.172, 5790.000
410.520, 5770.000
411.867, 5713.000
413.214, 5828.000
414.561, 5737.000
415.907, 5849.000
417.254, 5861.000
418.600, 5788.000
419.946, 5825.000
421.292, 5789.000
422.637, 5812.000
423.983, 5795.000
425.328, 5777.000
426.673, 5903.000
428.017, 5758.000
429.362, 5922.000
430.706, 5888.000
432.050, 5836.000
433.394, 5804.000
434.737, 5825.000
436.081, 5910.000
437.424, 5803.000
438.767, 5832.000
440.109, 5860.000
441.452, 5824.000
442.794, 5956.000
444.136, 5958.000
445.478, 6093.000
446.820, 6102.000
448.161, 6347.000
449.502, 6697.000
450.843, 6755.000
452.184, 6771.000
453.524, 6449.000
454.865, 6229.000
456.205, 6169.000
457.545, 6043.000
458.884, 6061.000
460.224, 5940.000
461.563, 6034.000
462.902, 6016.000
464.241, 6059.000
465.579, 6116.000
466.918, 6026.000
468.256, 6083.000
469.594, 6030.000
470.931, 6060.000
472.269, 6158.000
473.606, 6144.000
474.943, 6178.000
476.280, 6134.000
477.617, 6090.000
478.953, 6191.000
480.289, 6052.000
481.625, 6199.000
482.961, 6101.000
484.297, 6127.000
485.632, 6130.000
486.967, 6094.000
488.302, 6217.000
489.637, 6057.000
490.971, 6192.000
492.305, 6136.000
493.639, 6176.000
494.973, 6241.000
496.307, 6085.000
497.640, 6210.000
498.973, 6128.000
500.306, 6217.000
501.639, 6251.000
502.971, 6006.000
504.304, 6305.000
505.636, 6156.000
506.968, 6211.000
508.299, 6249.000
509.631, 6246.000
510.962, 6255.000
512.293, 6199.000
513.624, 6228.000
514.954, 6283.000
516.285, 6227.000
517.615, 6328.000
518.945, 6263.000
520.275, 6300.000
521.604, 6313.000
522.933, 6275.000
524.262, 6406.000
525.591, 6301.000
526.920, 6410.000
528.248, 6359.000
529.577, 6296.000
530.905, 6470.000
532.232, 6447.000
533.560, 6450.000
534.887, 6510.000
536.214, 6491.000
537.541, 6547.000
538.868, 6497.000
540.195, 6754.000
541.521, 6772.000
542.847, 6964.000
544.173, 7177.000
545.498, 7444.000
546.824, 7996.000
548.149, 8146.000
549.474, 8407.000
550.799, 8366.000
552.124, 8340.000
553.448, 8264.000
554.772, 7796.000
556.096, 7563.000
557.420, 7302.000
558.743, 7062.000
560.067, 6988.000
561.390, 6825.000
562.712, 6908.000
564.035, 6782.000
565.358, 6630.000
566.680, 6832.000
568.002, 6616.000
569.324, 6817.000
570.645, 6755.000
571.967, 6732.000
573.288, 6808.000
574.609, 6694.000
575.929, 6837.000
577.250, 6676.000
578.570, 6674.000
579.890, 6766.000
581.210, 6708.000
582.530, 6778.000
583.850, 6733.000
585.169, 6722.000
586.488, 6798.000
587.807, 6674.000
589.125, 6755.000
590.444, 6618.000
591.762, 6833.000
593.080, 6795.000
594.398, 6743.000
595.715, 6883.000
597.033, 6761.000
598.350, 6811.000
599.667, 6916.000
600.983, 6826.000
602.300, 7062.000
603.616, 6900.000
604.932, 7051.000
606.248, 7053.000
607.564, 6936.000
608.879, 7026.000
610.194, 6986.000
611.509, 6962.000
612.824, 6922.000
614.139, 6924.328
615.453, 6880.000
616.767, 6946.000
618.081, 6933.000
619.395, 6967.000
620.709, 6978.305
622.022, 6980.175
623.335, 7008.000
624.648, 6988.000
625.961, 7041.000
627.273, 7044.000
628.586, 7214.000
629.898, 6922.000
631.209, 7107.000
632.521, 7091.000
633.833, 6970.000
635.144, 7033.000
636.455, 6999.000
637.766, 7047.000
639.076, 6962.000
640.387, 7017.000
641.697, 7052.000
643.007, 6953.000
644.316, 7157.000
645.626, 6914.000
646.935, 7020.000
648.244, 7107.000
649.553, 6980.000
650.862, 7180.000
652.171, 7001.000
653.479, 7006.000
654.787, 7146.000
656.095, 6994.000
657.403, 7132.000
658.710, 7075.000
660.017, 7098.000
661.324, 7293.000
662.631, 7068.000
663.938, 7202.000
665.244, 7119.000
666.550, 7161.000
667.856, 7268.000
669.162, 7080.000
670.468, 7194.000
671.773, 7236.000
673.078, 7160.000
674.383, 7133.000
675.688, 7081.000
676.992, 7242.000
678.297, 7207.000
679.601, 7259.000
680.905, 7209.000
682.208, 7200.000
683.512, 7362.000
684.815, 7285.000
686.118, 7210.000
687.421, 7334.000
688.724, 7155.000
690.026, 7381.000
691.328, 7297.000
692.630, 7267.000
693.932, 7393.000
695.234, 7407.000
696.535, 7335.000
697.836, 7363.000
699.137, 7395.000
700.438, 7505.000
701.739, 7333.000
703.039, 7560.000
704.339, 7374.000
705.639, 7489.000
706.939, 7689.000
708.238, 7465.000
709.538, 7733.000
710.837, 7680.000
712.136, 7665.000
713.434, 7808.000
714.733, 7801.000
716.031, 8000.000
717.329, 7962.000
718.627, 7883.000
719.925, 8166.000
721.222, 7936.000
722.519, 7835.000
723.816, 7926.000
725.113, 7605.000
726.410, 7739.000
727.706, 7640.000
729.003, 7715.000
730.299, 7694.000
731.594, 7607.000
732.890, 7721.000
734.185, 7532.000
735.480, 7668.000
736.775, 7686.000
738.070, 7558.000
739.365, 7727.000
740.659, 7552.000
741.953, 7753.000
743.247, 7672.000
744.541, 7618.000
745.834, 7839.000
747.128, 7491.000
748.421, 7582.000
749.714, 7806.000
751.006, 7672.000
752.299, 7800.000
753.591, 7660.000
754.883, 7670.000
756.175, 7798.000
757.467, 7689.000
758.758, 7788.000
760.050, 7719.000
761.341, 7683.000
762.632, 7827.000
763.922, 7750.000
765.213, 7862.000
766.503, 7702.000
767.793, 7775.000
769.083, 7854.000
770.372, 7782.000
771.662, 7921.000
772.951, 7784.000
774.240, 7746.000
775.529, 7841.000
776.817, 7801.000
778.106, 7836.000
779.394, 7877.000
780.682, 7773.000
781.970, 8004.000
783.257, 7843.000
784.545, 7893.000
785.832, 7890.000
787.119, 7846.000
788.405, 7889.000
789.692, 7976.000
790.978, 7928.000
792.264, 8050.000
793.550, 7922.000
794.836, 8025.000
796.122, 7896.000
797.407, 8052.000
798.692, 8047.000
799.977, 8001.000
801.262, 8137.000
802.546, 8103.000
803.830, 8123.000
805.115, 8221.000
806.398, 8062.000
807.682, 8163.000
808.966, 8116.000
810.249, 8147.000
811.532, 8140.000
812.815, 8077.000
814.097, 8228.000
815.380, 8041.000
816.662, 8129.000
817.944, 8251.000
819.226, 8006.000
820.508, 8273.000
821.789, 8226.000
823.070, 8054.000
824.351, 8212.000
825.632, 8055.000
826.913, 8241.000
828.193, 8273.000
829.474, 8242.000
830.754, 8310.000
832.033, 8248.000
833.313, 8441.000
834.592, 8450.000
835.872, 8334.000
837.151, 8378.000
838.429, 8289.000
839.708, 8269.000
840.986, 8317.000
842.265, 8207.000
843.543, 8462.000
844.820, 8257.000
846.098, 8337.000
847.375, 8360.000
848.653, 8317.000
849.930, 8351.000
851.206, 8288.000
852.483, 8304.000
853.759, 8382.000
855.035, 8329.000
856.311, 8335.000
857.587, 8360.000
858.863, 8323.000
860.138, 8472.000
861.413, 8357.000
862.688, 8495.000
863.963, 8348.000
865.238, 8450.000
866.512, 8516.000
867.786, 8337.000
869.060, 8502.000
870.334, 8539.000
871.607, 8369.000
872.881, 8652.000
874.154, 8506.000
875.427, 8509.000
876.700, 8690.000
877.972, 8488.000
879.244, 8664.000
880.517, 8647.000
881.788, 8553.000
883.060, 8584.000
884.332, 8636.000
885.603, 8854.000
886.874, 8730.000
888.145, 8645.000
889.416, 8889.000
890.686, 8742.000
891.957, 8896.000
893.227, 8988.000
894.497, 8862.000
895.767, 9031.000
897.036, 9013.000
898.305, 9100.000
899.575, 9301.000
900.843, 9161.000
902.112, 9562.000
903.381, 9427.000
904.649, 9600.000
905.917, 9966.000
907.185, 9877.000
908.453, 10370.000
909.720, 10690.000
910.988, 11220.000
912.255, 11950.000
913.522, 13100.000
914.788, 14820.000
916.055, 17070.000
917.321, 19370.000
918.587, 22080.000
919.853, 21520.000
921.119, 19870.000
922.385, 17550.000
923.650, 15160.000
924.915, 13940.000
926.180, 12790.000
927.445, 11890.000
928.709, 11800.000
929.974, 11140.000
931.238, 10910.000
932.502, 10640.000
933.765, 10300.000
935.029, 10390.000
936.292, 10160.000
937.555, 10130.000
938.818, 10190.000
940.081, 10170.000
941.344, 10510.000
942.606, 10510.000
943.868, 10730.000
945.130, 11280.000
946.392, 11560.000
947.653, 12150.000
948.915, 12300.000
950.176, 12370.000
951.437, 12620.000
952.697, 12080.000
953.958, 11600.000
955.218, 11170.000
956.478, 10710.000
957.738, 10330.000
958.998, 10020.000
960.258, 9930.000
961.517, 9866.000
962.776, 9601.000
964.035, 9737.000
965.294, 9676.000
966.553, 9421.000
967.811, 9705.000
969.069, 9345.000
970.327, 9496.000
971.585, 9600.000
972.842, 9288.000
974.100, 9589.000
975.357, 9466.000
976.614, 9416.000
977.871, 9398.000
979.127, 9354.000
980.384, 9448.000
981.640, 9429.000
982.896, 9360.000
984.152, 9487.000
985.407, 9421.000
986.663, 9472.000
987.918, 9498.000
989.173, 9445.000
990.428, 9522.000
991.682, 9450.000
992.937, 9508.000
994.191, 9556.000
995.445, 9510.000
996.699, 9550.000
997.952, 9572.000
999.206, 9517.000
1000.459, 9808.000
1001.712, 9564.000
1002.965, 9783.000
1004.218, 9826.000
1005.470, 9663.000
1006.722, 10060.000
1007.974, 9916.000
1009.226, 10000.000
1010.478, 10340.000
1011.729, 10360.000
1012.981, 10580.000
1014.232, 11000.000
1015.483, 11280.000
1016.733, 11900.000
1017.984, 12140.000
1019.234, 12470.000
1020.484, 12530.000
1021.734, 12110.000
1022.984, 11990.000
1024.233, 11280.000
1025.483, 11050.000
1026.732, 11000.000
1027.981, 10430.000
1029.229, 10590.000
1030.478, 10380.000
1031.726, 10150.000
1032.974, 10460.000
1034.222, 10050.000
1035.470, 10160.000
1036.718, 10270.000
1037.965, 9988.000
1039.212, 10180.000
1040.459, 10120.000
1041.706, 9964.000
1042.952, 10190.000
1044.199, 10020.000
1045.445, 10190.000
1046.691, 10150.000
1047.937, 10110.000
1049.182, 10360.000
1050.428, 10190.000
1051.673, 10190.000
1052.918, 10430.000
1054.163, 10440.000
1055.407, 10660.000
1056.652, 10690.000
1057.896, 10710.000
1059.140, 11100.000
1060.384, 11390.000
1061.628, 11900.000
1062.871, 12920.000
1064.114, 13220.000
1065.357, 13910.000
1066.600, 13570.000
1067.843, 12900.000
1069.085, 12420.000
1070.328, 11700.000
1071.570, 11370.000
1072.812, 11160.000
1074.053, 10710.000
1075.295, 10790.000
1076.536, 10390.000
1077.777, 10440.000
1079.018, 10520.000
1080.259, 10260.000
1081.499, 10360.000
1082.740, 10250.000
1083.980, 10140.000
1085.220, 10260.000
1086.460, 10200.000
1087.699, 10220.000
1088.939, 10330.000
1090.178, 10120.000
1091.417, 10290.000
1092.656, 10250.000
1093.894, 10250.000
1095.133, 10460.000
1096.371, 10070.000
1097.609, 10370.000
1098.847, 10450.000
1100.084, 10280.000
1101.322, 10630.000
1102.559, 10590.000
1103.796, 10630.000
1105.033, 10720.000
1106.270, 10910.000
1107.506, 11020.000
1108.742, 11079.935
1109.978, 11170.000
1111.214, 11140.000
1112.450, 11110.000
1113.686, 11060.000
1114.921, 11040.000
1116.156, 10730.000
1117.391, 10900.000
1118.626, 10660.000
1119.860, 10410.000
1121.095, 10490.000
1122.329, 10410.000
1123.563, 10450.000
1124.797, 10470.000
1126.030, 10290.000
1127.264, 10420.000
1128.497, 10410.000
1129.730, 10340.000
1130.963, 10450.000
1132.195, 10300.000
1133.428, 10440.000
1134.660, 10510.000
1135.892, 10350.000
1137.124, 10560.000
1138.355, 10340.000
1139.587, 10440.000
1140.818, 10500.000
1142.049, 10170.000
1143.280, 10460.000
1144.511, 10490.000
1145.741, 10430.000
1146.972, 10410.000
1148.202, 10420.000
1149.432, 10250.000
1150.662, 10540.000
1151.891, 10320.000
1153.121, 10560.000
1154.350, 10480.000
1155.579, 10390.000
1156.808, 10550.000
1158.036, 10530.000
1159.265, 10330.000
1160.493, 10610.000
1161.721, 10460.000
1162.949, 10440.000
1164.176, 10660.000
1165.404, 10420.000
1166.631, 10680.000
1167.858, 10620.000
1169.085, 10470.000
1170.312, 10680.000
1171.538, 10410.000
1172.765, 10470.000
1173.991, 10720.000
1175.217, 10480.000
1176.442, 10750.000
1177.668, 10580.000
1178.893, 10560.000
1180.118, 10680.000
1181.343, 10610.000
1182.568, 10730.000
1183.793, 10670.000
1185.017, 10540.000
1186.241, 10820.000
1187.465, 10710.000
1188.689, 10770.000
1189.913, 10900.000
1191.136, 10590.000
1192.360, 10740.000
1193.583, 10850.000
1194.806, 10520.000
1196.028, 10920.000
1197.251, 10780.000
1198.473, 10790.000
1199.695, 10830.000
1200.917, 10740.000
1202.139, 10830.000
1203.361, 10950.000
1204.582, 10740.000
1205.803, 10940.000
1207.024, 10890.000
1208.245, 10720.000
1209.466, 11040.000
1210.686, 10870.000
1211.906, 10910.000
1213.126, 11020.000
1214.346, 10880.000
1215.566, 11070.000
1216.785, 10970.000
1218.005, 10940.000
1219.224, 11050.000
1220.443, 10920.000
1221.661, 10920.000
1222.880, 11110.000
1224.098, 11000.000
1225.316, 11200.000
1226.534, 11070.000
1227.752, 10860.000
1228.970, 11230.000
1230.187, 10980.000
1231.404, 11090.000
1232.621, 11250.000
1233.838, 10960.000
1235.055, 11140.000
1236.271, 11660.000
1237.488, 11288.228
1238.704, 11480.000
1239.920, 11250.000
1241.135, 11440.000
1242.351, 11364.166
1243.566, 11040.000
1244.781, 11240.000
1245.996, 11320.000
1247.211, 11180.000
1248.426, 11310.000
1249.640, 11240.000
1250.854, 11190.000
1252.068, 11380.000
1253.282, 11210.000
1254.496, 11240.000
1255.709, 11500.000
1256.922, 11140.000
1258.135, 11430.000
1259.348, 11270.000
1260.561, 11170.000
1261.774, 11460.000
1262.986, 11290.000
1264.198, 11290.000
1265.410, 11510.000
1266.622, 11240.000
1267.833, 11390.000
1269.045, 11560.000
1270.256, 11260.000
1271.467, 11550.000
1272.678, 11270.000
1273.888, 11410.000
1275.099, 11490.000
1276.309, 11240.000
1277.519, 11480.000
1278.729, 11580.000
1279.939, 11210.000
1281.148, 11670.000
1282.358, 11310.000
1283.567, 11460.000
1284.776, 11580.000
1285.985, 11270.000
1287.193, 11650.000
1288.402, 11540.000
1289.610, 11340.000
1290.818, 11730.000
1292.026, 11530.000
1293.233, 11340.000
1294.441, 11720.000
1295.648, 11480.000
1296.855, 11500.000
1298.062, 11710.000
1299.269, 11430.000
1300.475, 11670.000
1301.682, 11690.000
1302.888, 11540.000
1304.094, 11730.000
1305.300, 11550.000
1306.505, 11600.000
1307.711, 11740.000
1308.916, 11380.000
1310.121, 11790.000
1311.326, 11780.000
1312.530, 11520.000
1313.735, 11840.000
1314.939, 11670.000
1316.143, 11680.000
1317.347, 11970.000
1318.551, 11660.000
1319.755, 11820.000
1320.958, 11900.000
1322.161, 11600.000
1323.364, 11840.000
1324.567, 11940.000
1325.770, 11800.000
1326.972, 12170.000
1328.174, 11810.000
1329.377, 11790.000
1330.578, 12190.000
1331.780, 11770.000
1332.982, 12040.000
1334.183, 12070.000
1335.384, 11830.000
1336.585, 12120.000
1337.786, 11980.000
1338.987, 11840.000
1340.187, 12300.000
1341.387, 12020.000
1342.587, 12140.000
1343.787, 12350.000
1344.987, 11900.000
1346.186, 12330.000
1347.386, 12340.000
1348.585, 12110.000
1349.784, 12490.000
1350.982, 12150.000
1352.181, 12170.000
1353.379, 12370.000
1354.578, 12190.000
1355.776, 12270.000
1356.973, 12540.000
1358.171, 12240.000
1359.369, 12460.000
1360.566, 12470.000
1361.763, 12230.000
1362.960, 12610.000
1364.157, 12360.000
1365.353, 12500.000
1366.550, 12640.000
1367.746, 12200.000
1368.942, 12590.000
1370.138, 12650.000
1371.333, 12250.000
1372.529, 12730.000
1373.724, 12590.000
1374.919, 12370.000
1376.114, 12820.000
1377.309, 12480.000
1378.503, 12640.000
1379.697, 12850.000
1380.892, 12420.000
1382.086, 12700.000
1383.279, 12900.000
1384.473, 12510.000
1385.666, 12920.000
1386.860, 12690.000
1388.053, 12650.000
1389.246, 12910.000
1390.438, 12720.000
1391.631, 12640.000
1392.823, 13080.000
1394.015, 12630.000
1395.207, 12860.000
1396.399, 12920.000
1397.591, 12660.000
1398.782, 13060.000
1399.973, 12810.000
1401.164, 12870.000
1402.355, 13070.000
1403.546, 12820.000
1404.737, 12960.000
1405.927, 13220.000
1407.117, 12730.000
1408.307, 13050.000
1409.497, 13120.000
1410.686, 12810.000
1411.876, 13270.000
1413.065, 13000.000
1414.254, 12970.000
1415.443, 13260.000
1416.632, 12880.000
1417.820, 13090.000
1419.008, 13390.000
1420.197, 12880.000
1421.384, 13360.000
1422.572, 13250.000
1423.760, 12930.000
1424.947, 13460.000
1426.134, 13150.000
1427.322, 13230.000
1428.508, 13510.000
1429.695, 13110.000
1430.882, 13280.000
1432.068, 13320.000
1433.254, 13150.000
1434.440, 13340.000
1435.626, 13380.000
1436.811, 13170.000
1437.997, 13730.000
1439.182, 13170.000
1440.367, 13360.000
1441.552, 13670.000
1442.737, 13170.000
1443.921, 13450.000
1445.105, 13680.000
1446.290, 13250.000
1447.474, 13770.000
1448.657, 13710.000
1449.841, 13390.000
1451.024, 13880.000
1452.208, 13530.000
1453.391, 13530.000
1454.574, 13950.000
1455.756, 13550.000
1456.939, 13590.000
1458.121, 13930.000
1459.303, 13520.000
1460.485, 13860.000
1461.667, 13870.000
1462.849, 13560.000
1464.030, 14000.000
1465.211, 13870.000
1466.392, 13610.000
1467.573, 14210.000
1468.754, 13810.000
1469.935, 13770.000
1471.115, 14100.000
1472.295, 13840.000
1473.475, 13960.000
1474.655, 14010.000
1475.835, 13830.000
1477.014, 14200.000
1478.193, 13980.000
1479.372, 13910.000
1480.551, 14280.000
1481.730, 13940.000
1482.909, 14050.000
1484.087, 14440.000
1485.265, 13910.000
1486.443, 14120.000
1487.621, 14390.000
1488.799, 13740.000
1489.976, 14400.000
1491.153, 14310.000
1492.331, 13870.000
1493.507, 14470.000
1494.684, 14180.000
1495.861, 13960.000
1497.037, 14510.000
1498.213, 14050.000
1499.389, 14180.000
1500.565, 14620.000
1501.741, 14030.000
1502.916, 14380.000
1504.092, 14500.000
1505.267, 14100.000
1506.442, 14510.000
1507.617, 14350.000
1508.791, 14140.000
1509.966, 14730.000
1511.140, 14310.000
1512.314, 14180.000
1513.488, 14640.000
1514.662, 14130.000
1515.835, 14490.000
1517.009, 14640.000
1518.182, 14100.000
1519.355, 14590.000
1520.528, 14470.000
1521.700, 14280.000
1522.873, 14680.000
1524.045, 14360.000
##END=



