##NAMES=Bournonite
##RRUFFID=R050111
##IDEAL CHEMISTRY=Cu^1+^Pb^2+^Sb^3+^S^2-^_3_
##LOCALITY=Yao Gang Xian mine, Chenzhou, Hunan Province, China
##OWNER=RRUFF
##SOURCE=He Xin Jian
##DESCRIPTION=Steel-gray short prismatic crystal
##STATUS=The identification of this mineral has been confirmed by X-ray diffraction and chemical analysis
##URL=rruff.info/R050111
##MEASURED CHEMISTRY=PbCuSbS_3_
212.166, 20138.789
212.648, 20139.641
213.130, 20123.070
213.612, 20118.730
214.094, 20138.869
214.577, 20172.840
215.059, 20210.020
215.541, 20246.660
216.023, 20277.199
216.505, 20277.850
216.987, 20213.789
217.469, 20170.160
217.951, 20170.750
218.434, 20196.029
218.916, 20225.189
219.398, 20249.230
219.880, 20268.350
220.362, 20283.500
220.844, 20300.160
221.326, 20302.570
221.808, 20275.471
222.290, 20241.020
222.773, 20222.430
223.255, 20228.850
223.737, 20249.109
224.219, 20259.641
224.701, 20254.100
225.183, 20251.699
225.665, 20266.301
226.147, 20278.400
226.629, 20264.730
227.112, 20218.670
227.594, 20167.211
228.076, 20157.080
228.558, 20207.189
229.040, 20245.199
229.522, 20251.480
230.004, 20249.779
230.486, 20255.600
230.969, 20272.109
231.451, 20291.391
231.933, 20304.840
232.415, 20312.619
232.897, 20313.391
233.379, 20289.750
233.861, 20271.859
234.343, 20284.359
234.825, 20325.910
235.307, 20365.400
235.790, 20365.840
236.272, 20321.961
236.754, 20293.020
237.236, 20293.881
237.718, 20301.539
238.200, 20306.500
238.682, 20308.289
239.165, 20309.500
239.647, 20315.051
240.129, 20324.449
240.611, 20322.779
241.093, 20303.150
241.575, 20279.359
242.057, 20253.881
242.539, 20229.551
243.021, 20213.471
243.503, 20213.260
243.986, 20225.830
244.468, 20236.250
244.950, 20243.020
245.432, 20250.779
245.914, 20264.230
246.396, 20280.250
246.878, 20293.090
247.361, 20300.359
247.843, 20302.711
248.325, 20298.279
248.807, 20280.689
249.289, 20273.631
249.771, 20305.150
250.253, 20349.580
250.735, 20373.449
251.217, 20363.211
251.699, 20329.971
252.182, 20282.939
252.664, 20218.881
253.146, 20160.680
253.628, 20114.230
254.110, 20081.680
254.592, 20072.051
255.074, 20099.850
255.556, 20121.480
256.039, 20081.561
256.521, 19982.439
257.003, 19905.449
257.485, 19883.779
257.967, 19896.211
258.449, 19911.949
258.931, 19931.260
259.413, 19950.801
259.896, 19976.240
260.378, 20002.510
260.860, 20003.670
261.342, 19959.150
261.824, 19908.330
262.306, 19909.520
262.788, 19966.301
263.270, 20009.609
263.752, 20003.949
264.235, 19968.580
264.717, 19937.520
265.199, 19915.770
265.681, 19903.801
266.163, 19909.080
266.645, 19930.779
267.127, 19939.910
267.609, 19913.770
268.091, 19881.490
268.574, 19884.740
269.056, 19927.449
269.538, 19961.080
270.020, 19939.539
270.502, 19860.920
270.984, 19801.660
271.466, 19728.260
271.948, 19701.660
272.431, 19701.936
272.913, 19761.928
273.395, 19807.424
273.877, 19839.199
274.359, 19816.178
274.841, 19863.918
275.323, 19883.301
275.805, 19901.523
276.288, 19943.609
276.770, 20023.381
277.252, 20093.369
277.734, 20113.180
278.216, 20100.939
278.698, 20112.619
279.180, 20171.869
279.662, 20224.670
280.144, 20265.760
280.626, 20298.230
281.109, 20323.400
281.591, 20342.039
282.073, 20359.080
282.555, 20383.320
283.037, 20423.760
283.519, 20453.939
284.001, 20466.350
284.483, 20474.801
284.966, 20484.410
285.448, 20498.369
285.930, 20525.131
286.412, 20581.660
286.894, 20686.529
287.376, 20726.350
287.858, 20651.881
288.340, 20564.320
288.823, 20501.480
289.305, 20460.631
289.787, 20420.320
290.269, 20360.650
290.751, 20286.359
291.233, 20248.939
291.715, 20277.779
292.197, 20311.160
292.679, 20353.189
293.162, 20385.250
293.644, 20376.449
294.126, 20305.080
294.608, 20202.920
295.090, 20148.760
295.572, 20159.449
296.054, 20178.600
296.536, 20196.189
297.018, 20213.039
297.501, 20227.580
297.983, 20238.961
298.465, 20254.480
298.947, 20282.199
299.429, 20322.250
299.911, 20371.250
300.393, 20433.270
300.875, 20499.760
301.358, 20560.461
301.840, 20615.740
302.322, 20681.289
302.804, 20784.020
303.286, 20908.311
303.768, 20991.400
304.250, 21013.449
304.732, 21021.400
305.215, 21044.100
305.697, 21081.740
306.179, 21140.039
306.661, 21230.150
307.143, 21337.881
307.625, 21450.891
308.107, 21569.141
308.589, 21676.881
309.071, 21756.619
309.553, 21818.539
310.036, 21896.900
310.518, 22012.061
311.000, 22123.891
311.482, 22208.000
311.964, 22269.680
312.446, 22320.471
312.928, 22359.510
313.410, 22400.131
313.893, 22480.660
314.375, 22630.811
314.857, 22754.760
315.339, 22807.350
315.821, 22833.689
316.303, 22895.930
316.785, 23008.570
317.267, 23131.461
317.750, 23215.160
318.232, 23253.250
318.714, 23262.670
319.196, 23239.061
319.678, 23193.340
320.160, 23121.689
320.642, 23031.260
321.124, 22944.199
321.606, 22884.180
322.089, 22849.131
322.571, 22756.680
323.053, 22519.529
323.535, 22316.551
324.017, 22208.910
324.499, 22155.160
324.981, 22090.760
325.463, 21983.650
325.945, 21854.061
326.428, 21758.590
326.910, 21719.500
327.392, 21668.891
327.874, 21586.859
328.356, 21497.029
328.838, 21423.410
329.320, 21369.080
329.802, 21309.631
330.284, 21207.510
330.767, 21059.080
331.249, 20943.250
331.731, 20883.900
332.213, 20842.840
332.695, 20805.250
333.177, 20767.580
333.659, 20718.359
334.142, 20644.711
334.624, 20556.211
335.106, 20470.850
335.588, 20383.311
336.070, 20320.670
336.552, 20330.920
337.034, 20372.420
337.516, 20367.461
337.998, 20275.211
338.480, 20168.730
338.963, 20101.779
339.445, 20070.859
339.927, 20058.920
340.409, 20066.070
340.891, 20080.240
341.373, 20077.141
341.855, 20054.100
342.337, 20027.029
342.819, 19984.279
343.302, 19946.100
343.784, 19946.779
344.266, 19992.240
344.748, 20045.381
345.230, 20064.221
345.712, 20039.051
346.194, 20032.930
346.677, 20057.400
347.159, 20088.070
347.641, 20116.080
348.123, 20139.600
348.605, 20156.461
349.087, 20164.150
349.569, 20165.859
350.051, 20179.150
350.533, 20223.029
351.016, 20254.910
351.498, 20264.340
351.980, 20262.721
352.462, 20261.381
352.944, 20264.020
353.426, 20267.090
353.908, 20267.420
354.390, 20267.900
354.872, 20254.539
355.355, 20198.740
355.837, 20151.480
356.319, 20146.840
356.801, 20176.461
357.283, 20201.801
357.765, 20194.330
358.247, 20160.770
358.729, 20127.920
359.211, 20099.490
359.694, 20063.180
360.176, 19987.760
360.658, 19906.119
361.140, 19872.551
361.622, 19926.971
362.104, 19990.721
362.586, 19982.990
363.069, 19913.689
363.551, 19851.990
364.033, 19821.131
364.515, 19809.920
364.997, 19802.869
365.479, 19801.000
365.961, 19796.961
366.443, 19787.080
366.925, 19774.689
367.408, 19765.119
367.890, 19758.730
368.372, 19747.801
368.854, 19719.920
369.336, 19672.689
369.818, 19668.359
370.300, 19738.301
370.782, 19811.520
371.264, 19866.859
371.747, 19904.211
372.229, 19925.510
372.711, 19931.180
373.193, 19926.240
373.675, 19923.471
374.157, 19921.939
374.639, 19924.529
375.121, 19937.580
375.603, 19949.881
376.086, 19956.230
376.568, 19954.400
377.050, 19941.000
377.532, 19908.730
378.014, 19857.391
378.496, 19811.100
378.978, 19765.770
379.460, 19732.070
379.943, 19719.650
380.425, 19720.109
380.907, 19718.949
381.389, 19712.961
381.871, 19699.260
382.353, 19662.410
382.835, 19600.789
383.317, 19572.461
383.799, 19621.391
384.282, 19695.990
384.764, 19713.529
385.246, 19661.350
385.728, 19615.980
386.210, 19612.320
386.692, 19634.051
387.174, 19663.260
387.656, 19697.250
388.138, 19717.760
388.621, 19700.971
389.103, 19643.680
389.585, 19621.590
390.067, 19651.230
390.549, 19696.131
391.031, 19752.760
391.513, 19811.170
391.996, 19853.359
392.478, 19869.811
392.960, 19868.971
393.442, 19871.160
393.924, 19874.420
394.406, 19884.449
394.888, 19910.160
395.370, 19935.230
395.852, 19942.930
396.335, 19935.359
396.817, 19933.000
397.299, 19963.699
397.781, 20023.141
398.263, 20040.881
398.745, 19992.961
399.227, 19941.289
399.709, 19902.859
400.191, 19880.020
400.674, 19879.570
401.156, 19910.270
401.638, 19949.289
402.120, 19979.670
402.602, 19999.980
403.084, 19990.590
403.566, 19932.010
404.048, 19860.939
404.530, 19828.670
405.013, 19835.490
405.495, 19844.949
405.977, 19852.270
406.459, 19855.350
406.941, 19852.039
407.423, 19842.461
407.905, 19825.711
408.387, 19797.500
408.870, 19762.109
409.352, 19755.320
409.834, 19818.850
410.316, 19857.840
410.798, 19827.971
411.280, 19775.631
411.762, 19755.381
412.244, 19782.750
412.727, 19833.760
413.209, 19876.369
413.691, 19907.939
414.173, 19941.170
414.655, 19983.420
415.137, 20019.449
415.619, 20044.160
416.101, 20057.820
416.583, 20061.881
417.065, 20054.160
417.548, 20040.410
418.030, 20028.490
418.512, 20016.420
418.994, 20020.289
419.476, 20060.410
419.958, 20108.811
420.440, 20128.461
420.922, 20114.330
421.405, 20100.680
421.887, 20100.510
422.369, 20112.160
422.851, 20138.840
423.333, 20180.770
423.815, 20217.449
424.297, 20230.760
424.779, 20221.480
425.262, 20214.801
425.744, 20220.680
426.226, 20217.779
426.708, 20187.359
427.190, 20147.221
427.672, 20124.160
428.154, 20127.840
428.636, 20146.680
429.118, 20159.680
429.601, 20154.650
430.083, 20179.301
430.565, 20282.160
431.047, 20368.881
431.529, 20388.369
432.011, 20356.631
432.493, 20320.260
432.975, 20302.221
433.457, 20301.311
433.940, 20321.471
434.422, 20369.141
434.904, 20403.279
435.386, 20400.150
435.868, 20382.650
436.350, 20378.061
436.832, 20389.189
437.314, 20400.920
437.797, 20401.100
438.279, 20399.240
438.761, 20416.670
439.243, 20455.770
439.725, 20485.590
440.207, 20479.359
440.689, 20440.000
441.171, 20412.141
441.654, 20382.500
442.136, 20377.461
442.618, 20427.750
443.100, 20497.699
443.582, 20539.881
444.064, 20540.270
444.546, 20520.340
445.028, 20507.910
445.510, 20502.830
445.992, 20505.199
446.475, 20541.189
446.957, 20557.600
447.439, 20521.980
447.921, 20453.730
448.403, 20391.680
448.885, 20353.131
449.367, 20329.939
449.849, 20311.760
450.332, 20298.930
450.814, 20284.850
451.296, 20261.330
451.778, 20228.746
452.260, 20246.893
452.742, 20252.723
453.224, 20246.902
453.706, 20194.527
454.189, 20202.268
454.671, 20185.916
455.153, 20168.576
455.635, 20184.775
456.117, 20139.172
456.599, 20154.842
457.081, 20141.570
457.563, 20124.680
458.045, 20154.268
458.528, 20172.572
459.010, 20180.203
459.492, 20160.670
459.974, 20156.410
460.456, 20141.270
460.938, 20139.711
461.420, 20150.119
461.902, 20153.641
462.384, 20139.381
462.867, 20138.270
463.349, 20179.930
463.831, 20233.279
464.313, 20259.820
464.795, 20247.760
465.277, 20225.340
465.759, 20209.070
466.241, 20199.910
466.724, 20206.199
467.206, 20233.471
467.688, 20252.369
468.170, 20228.131
468.652, 20161.619
469.134, 20131.480
469.616, 20180.721
470.098, 20219.369
470.581, 20199.080
471.063, 20146.359
471.545, 20104.180
472.027, 20088.270
472.509, 20087.930
472.991, 20087.930
473.473, 20088.080
473.955, 20088.510
474.437, 20092.650
474.919, 20093.260
475.402, 20092.250
475.884, 20085.029
476.366, 20059.881
476.848, 20003.641
477.330, 19943.721
477.812, 19925.801
478.294, 19948.670
478.776, 19956.830
479.259, 19936.285
479.741, 19963.619
480.223, 19979.330
480.705, 19984.045
481.187, 19944.820
481.669, 19962.334
482.151, 19957.107
482.633, 19963.141
483.116, 19973.029
483.598, 20000.080
484.080, 20018.939
484.562, 20034.561
485.044, 20059.881
485.526, 20112.461
486.008, 20141.381
486.490, 20139.279
486.972, 20122.439
487.455, 20090.539
487.937, 20051.170
488.419, 20020.789
488.901, 20008.330
489.383, 20013.350
489.865, 20041.680
490.347, 20098.400
490.829, 20143.320
491.311, 20165.189
491.794, 20166.350
492.276, 20143.449
492.758, 20092.980
493.240, 20063.240
493.722, 20093.881
494.204, 20137.270
494.686, 20140.641
495.168, 20106.350
495.651, 20066.990
496.133, 20041.381
496.615, 20025.119
497.097, 20004.240
497.579, 19968.250
498.061, 19943.770
498.543, 19938.180
499.025, 19938.430
499.508, 19934.641
499.990, 19927.539
500.472, 19925.420
500.954, 19937.529
501.436, 19956.760
501.918, 19957.080
502.400, 19931.061
502.882, 19921.289
503.364, 19960.510
503.846, 20009.980
504.329, 20021.779
504.811, 19991.900
505.293, 19954.939
505.775, 19912.221
506.257, 19876.150
506.739, 19859.240
507.221, 19862.381
507.703, 19887.400
508.186, 19940.160
508.668, 20006.461
509.150, 20036.850
509.632, 20003.730
510.114, 19974.230
510.596, 19945.100
511.078, 19924.119
511.560, 19921.631
512.042, 19933.650
512.525, 19942.711
513.007, 19931.070
513.489, 19911.740
513.971, 19924.500
514.453, 19975.381
514.935, 20021.490
515.417, 20055.779
515.899, 20070.260
516.382, 20047.131
516.864, 19981.311
517.346, 19936.840
517.828, 19952.721
518.310, 19985.131
518.792, 19986.520
519.274, 19963.449
519.756, 19960.109
520.239, 20004.670
520.721, 20069.801
521.203, 20077.039
521.685, 19969.730
522.167, 19910.570
522.649, 19940.439
523.131, 19980.680
523.613, 19981.760
524.096, 19952.580
524.578, 19931.680
525.060, 19942.939
525.542, 19972.471
526.024, 20001.900
526.506, 20031.369
526.988, 20043.410
527.470, 20033.109
527.952, 20003.221
528.435, 19943.740
528.917, 19853.340
529.399, 19796.100
529.881, 19813.600
530.363, 19837.170
530.845, 19810.480
531.327, 19755.949
531.809, 19733.900
532.291, 19770.619
532.774, 19828.180
533.256, 19835.189
533.738, 19771.109
534.220, 19728.391
534.702, 19713.670
535.184, 19715.510
535.666, 19732.391
536.148, 19761.490
536.630, 19800.539
537.113, 19854.650
537.595, 19903.750
538.077, 19927.990
538.559, 19930.211
539.041, 19918.520
539.523, 19892.660
540.005, 19862.369
540.487, 19829.199
540.969, 19793.381
541.452, 19805.270
541.934, 19932.721
542.416, 20022.090
542.898, 19996.330
543.380, 19924.311
543.862, 19894.660
544.344, 19926.311
544.826, 19969.119
545.309, 19972.359
545.791, 19938.020
546.273, 19883.910
546.755, 19789.891
547.237, 19724.510
547.719, 19739.789
548.201, 19793.029
548.683, 19832.930
549.166, 19855.461
549.648, 19862.359
550.130, 19843.150
550.612, 19814.740
551.094, 19798.250
551.576, 19794.529
552.058, 19792.891
552.540, 19786.141
553.023, 19776.730
553.505, 19772.820
553.987, 19767.420
554.469, 19780.711
554.951, 19834.850
555.433, 19887.580
555.915, 19914.551
556.397, 19916.240
556.879, 19902.289
557.362, 19866.830
557.844, 19831.949
558.326, 19838.260
558.808, 19882.529
559.290, 19922.529
559.772, 19948.260
560.254, 19959.801
560.736, 19951.141
561.218, 19916.971
561.701, 19906.930
562.183, 19947.131
562.665, 19984.230
563.147, 20000.301
563.629, 19995.580
564.111, 19963.711
564.593, 19904.910
565.075, 19847.340
565.557, 19822.480
566.040, 19786.322
566.522, 19816.516
567.004, 19830.604
567.486, 19829.449
567.968, 19767.406
568.450, 19783.990
568.932, 19769.064
569.414, 19752.846
569.896, 19780.496
570.379, 19756.551
570.861, 19724.010
571.343, 19736.699
571.825, 19781.250
572.307, 19819.109
572.789, 19823.070
573.271, 19805.000
573.753, 19807.539
574.236, 19848.109
574.718, 19874.939
575.200, 19883.721
575.682, 19878.619
576.164, 19841.900
576.646, 19790.801
577.128, 19779.990
577.610, 19862.439
578.093, 19961.711
578.575, 19968.730
579.057, 19907.420
579.539, 19894.590
580.021, 19865.822
580.503, 19908.732
580.985, 19934.244
581.467, 19943.291
581.950, 19886.561
582.432, 19914.768
582.914, 19908.938
583.396, 19901.709
583.878, 19941.871
584.360, 19894.707
584.842, 19934.117
585.324, 19932.641
585.806, 19947.061
586.289, 19945.170
586.771, 19947.320
587.253, 19952.760
587.735, 19969.920
588.217, 20017.590
588.699, 20066.109
589.181, 20053.660
589.663, 19963.939
590.145, 19898.770
590.628, 19878.811
591.110, 19884.260
591.592, 19923.230
592.074, 19974.580
592.556, 19990.039
593.038, 19946.920
593.520, 19885.160
594.002, 19875.529
594.484, 19925.020
594.967, 19946.609
595.449, 19924.020
595.931, 19892.510
596.413, 19859.119
596.895, 19833.840
597.377, 19839.539
597.859, 19893.811
598.341, 19945.840
598.823, 19975.250
599.306, 19988.279
599.788, 19988.789
600.270, 19979.529
600.752, 19966.641
601.234, 19953.160
601.716, 19942.561
602.198, 19946.080
602.680, 19964.939
603.162, 19995.891
603.645, 20071.920
604.127, 20129.359
604.609, 20115.119
605.091, 20050.051
605.573, 20003.039
606.055, 20006.561
606.537, 20024.760
607.019, 20027.570
607.502, 20023.250
607.984, 20033.740
608.466, 20063.350
608.948, 20093.039
609.430, 20105.510
609.912, 20101.199
610.394, 20089.510
610.876, 20064.869
611.359, 20040.580
611.841, 20008.270
612.323, 19984.230
612.805, 19989.051
613.287, 20018.561
613.769, 20040.520
614.251, 20026.230
614.733, 20002.590
615.216, 20008.279
615.698, 20037.100
616.180, 20064.660
616.662, 20084.920
617.144, 20087.949
617.626, 20055.211
618.108, 19979.820
618.590, 19941.910
619.072, 19975.000
619.555, 20005.490
620.037, 20020.801
620.519, 20024.230
621.001, 20014.949
621.483, 19995.029
621.965, 19980.369
622.447, 19983.930
622.929, 20000.250
623.411, 20024.949
623.894, 20056.250
624.376, 20072.500
624.858, 20062.580
625.340, 20040.250
625.822, 20023.990
626.304, 20010.340
626.786, 20018.779
627.268, 20083.590
627.750, 20129.320
628.233, 20119.311
628.715, 20079.689
629.197, 20038.439
629.679, 20004.391
630.161, 19988.939
630.643, 20016.900
631.125, 20068.561
631.607, 20086.119
632.089, 20067.529
632.572, 20067.961
633.054, 20120.980
633.536, 20191.730
634.018, 20213.900
634.500, 20160.740
634.982, 20137.580
635.464, 20171.080
635.946, 20204.570
636.429, 20210.631
636.911, 20201.590
637.393, 20197.109
637.875, 20203.350
638.357, 20214.881
638.839, 20222.570
639.321, 20231.471
639.803, 20264.311
640.286, 20323.480
640.768, 20366.830
641.250, 20369.061
641.732, 20348.740
642.214, 20342.410
642.696, 20352.830
643.178, 20371.850
643.660, 20427.740
644.143, 20462.551
644.625, 20434.711
645.107, 20372.609
645.589, 20318.211
646.071, 20285.330
646.553, 20275.641
647.035, 20309.961
647.517, 20367.051
647.999, 20379.150
648.482, 20341.109
648.964, 20300.689
649.446, 20281.980
649.928, 20275.859
650.410, 20261.811
650.892, 20226.381
651.374, 20217.369
651.856, 20271.189
652.338, 20311.311
652.821, 20289.740
653.303, 20235.789
653.785, 20198.561
654.267, 20193.770
654.749, 20194.961
655.231, 20171.000
655.713, 20136.311
656.195, 20130.760
656.677, 20155.449
657.160, 20177.051
657.642, 20178.539
658.124, 20168.170
658.606, 20161.359
659.088, 20155.010
659.570, 20161.211
660.052, 20201.900
660.534, 20230.039
661.016, 20223.119
661.499, 20194.420
661.981, 20167.539
662.463, 20149.109
662.945, 20112.420
663.427, 20006.100
663.909, 19880.949
664.391, 19833.131
664.873, 19859.779
665.356, 19903.150
665.838, 19938.500
666.320, 19969.369
666.802, 20003.260
667.284, 20045.381
667.766, 20068.551
668.248, 20068.359
668.730, 20053.119
669.213, 20008.051
669.695, 19958.100
670.177, 19933.010
670.659, 19938.471
671.141, 19954.820
671.623, 19970.330
672.105, 19990.820
672.587, 20039.779
673.070, 20102.410
673.552, 20119.100
674.034, 20066.131
674.516, 19985.779
674.998, 19932.570
675.480, 19906.461
675.962, 19908.520
676.444, 19962.760
676.926, 20004.340
677.409, 20001.051
677.891, 19982.461
678.373, 19974.119
678.855, 19978.000
679.337, 19988.561
679.819, 20013.830
680.301, 20035.900
680.783, 20041.980
681.265, 20034.109
681.748, 20013.740
682.230, 19982.660
682.712, 19949.449
683.194, 19918.369
683.676, 19893.289
684.158, 19906.930
684.640, 19973.070
685.122, 20026.080
685.604, 20050.689
686.087, 20051.850
686.569, 20026.471
687.051, 19977.590
687.533, 19938.051
688.015, 19904.721
688.497, 19889.820
688.979, 19921.529
689.461, 19961.350
689.943, 19946.850
690.426, 19884.189
690.908, 19853.039
691.390, 19925.061
691.872, 20047.910
692.354, 20103.619
692.836, 20094.141
693.318, 20086.990
693.800, 20097.150
694.283, 20109.359
694.765, 20109.910
695.247, 20100.320
695.729, 20094.391
696.211, 20095.980
696.693, 20095.141
697.175, 20080.631
697.657, 20071.789
698.140, 20091.471
698.622, 20128.641
699.104, 20151.930
699.586, 20147.221
700.068, 20124.500
700.550, 20085.939
701.032, 20038.721
701.514, 19995.680
701.997, 19959.711
702.479, 19950.631
702.961, 19985.820
703.443, 20044.180
703.925, 20072.090
704.407, 20065.061
704.889, 20039.039
705.371, 19967.590
705.853, 19907.760
706.336, 19885.820
706.818, 19889.061
707.300, 19900.949
707.782, 19921.020
708.264, 19936.301
708.746, 19939.100
709.228, 19935.430
709.710, 19929.430
710.192, 19922.131
710.675, 19912.990
711.157, 19902.080
711.639, 19896.250
712.121, 19906.670
712.603, 19931.971
713.085, 19954.510
713.567, 19977.160
714.049, 19982.670
714.531, 19950.260
715.014, 19913.270
715.496, 19923.330
715.978, 19984.609
716.460, 20019.619
716.942, 20001.100
717.424, 19982.811
717.906, 19988.289
718.388, 20001.090
718.870, 20001.660
719.353, 19988.590
719.835, 19973.461
720.317, 19959.840
720.799, 19953.551
721.281, 19968.539
721.763, 19999.980
722.245, 20031.061
722.727, 20059.170
723.210, 20063.340
723.692, 20019.570
724.174, 19942.160
724.656, 19904.330
725.138, 19928.830
725.620, 19946.900
726.102, 19949.539
726.584, 19948.119
727.067, 19952.311
727.549, 19956.051
728.031, 19942.840
728.513, 19899.949
728.995, 19867.400
729.477, 19866.070
729.959, 19885.020
730.441, 19928.340
730.924, 19981.811
731.406, 20007.039
731.888, 19986.891
732.370, 19945.230
732.852, 19913.311
733.334, 19890.189
733.816, 19863.830
734.298, 19830.689
734.780, 19811.539
735.263, 19818.641
735.745, 19838.279
736.227, 19850.609
736.709, 19853.250
737.191, 19861.830
737.673, 19887.609
738.155, 19905.061
738.637, 19897.029
739.119, 19883.471
739.602, 19887.410
740.084, 19908.461
740.566, 19925.811
741.048, 19923.500
741.530, 19917.650
742.012, 19933.529
742.494, 19958.510
742.976, 19957.551
743.458, 19926.490
743.941, 19899.949
744.423, 19909.801
744.905, 19928.330
745.387, 19920.977
745.869, 19944.021
746.351, 19959.688
746.833, 19968.371
747.315, 19949.158
747.797, 19965.967
748.280, 19971.670
748.762, 20008.930
749.244, 19966.631
749.726, 19927.330
750.208, 19890.561
750.690, 19877.529
751.172, 19928.551
751.654, 20003.189
752.137, 20032.051
752.619, 19997.100
753.101, 19944.240
753.583, 19902.650
754.065, 19875.609
754.547, 19879.510
755.029, 19907.539
755.511, 19919.721
755.994, 19903.600
756.476, 19871.221
756.958, 19831.750
757.440, 19787.430
757.922, 19759.830
758.404, 19746.391
758.886, 19757.590
759.368, 19831.740
759.851, 19893.609
760.333, 19874.699
760.815, 19799.984
761.297, 19880.176
761.779, 19922.768
762.261, 19929.775
762.743, 19794.629
763.225, 19843.047
763.707, 19817.900
764.190, 19789.736
764.672, 19863.988
765.154, 19749.520
765.636, 19822.146
766.118, 19820.090
766.600, 19800.721
767.082, 19780.900
767.564, 19815.711
768.046, 19836.840
768.529, 19816.480
769.011, 19781.689
769.493, 19764.020
769.975, 19763.471
770.457, 19790.020
770.939, 19877.010
771.421, 19926.721
771.903, 19887.189
772.385, 19830.010
772.868, 19809.570
773.350, 19819.680
773.832, 19827.551
774.314, 19825.641
774.796, 19823.580
775.278, 19814.529
775.760, 19814.939
776.242, 19869.221
776.724, 19944.779
777.207, 19943.820
777.689, 19817.311
778.171, 19671.449
778.653, 19623.539
779.135, 19649.410
779.617, 19705.260
780.099, 19782.770
780.581, 19824.539
781.064, 19804.039
781.546, 19760.439
782.028, 19746.061
782.510, 19761.381
782.992, 19772.461
783.474, 19777.770
783.956, 19781.660
784.438, 19777.619
784.920, 19779.779
785.403, 19811.449
785.885, 19863.420
786.367, 19887.301
786.849, 19846.510
787.331, 19819.711
787.813, 19839.789
788.295, 19870.689
788.778, 19887.061
789.260, 19888.500
789.742, 19878.711
790.224, 19857.471
790.706, 19842.131
791.188, 19863.770
791.670, 19894.920
792.152, 19873.971
792.634, 19812.439
793.117, 19783.529
793.599, 19814.391
794.081, 19850.619
794.563, 19822.580
795.045, 19739.801
795.527, 19685.920
796.009, 19660.420
796.491, 19674.420
796.973, 19762.211
797.456, 19834.539
797.938, 19779.791
798.420, 19835.848
798.902, 19865.006
799.384, 19868.715
799.866, 19770.742
800.348, 19804.068
800.830, 19784.775
801.312, 19763.326
801.795, 19815.133
802.277, 19731.949
802.759, 19782.594
803.241, 19779.816
803.723, 19801.490
804.205, 19770.219
804.687, 19755.301
805.169, 19793.344
805.652, 19802.059
806.134, 19781.500
806.616, 19806.877
807.098, 19821.104
807.580, 19824.779
808.062, 19786.303
808.544, 19802.258
809.026, 19796.398
809.508, 19789.645
809.991, 19813.260
810.473, 19780.914
810.955, 19804.047
811.437, 19805.035
811.919, 19816.158
812.401, 19805.332
812.883, 19801.287
813.365, 19819.195
813.847, 19824.949
814.330, 19811.598
814.812, 19800.350
815.294, 19799.340
815.776, 19782.201
816.258, 19807.754
816.740, 19822.945
817.222, 19828.328
817.705, 19808.760
818.187, 19735.561
818.669, 19737.170
819.151, 19765.820
819.633, 19809.539
820.115, 19836.869
820.597, 19793.660
821.079, 19720.730
821.561, 19701.490
822.044, 19731.740
822.526, 19749.141
823.008, 19725.131
823.490, 19698.430
823.972, 19735.109
824.454, 19823.359
824.936, 19839.160
825.418, 19773.631
825.901, 19703.051
826.383, 19639.410
826.865, 19604.061
827.347, 19625.160
827.829, 19694.500
828.311, 19747.811
828.793, 19782.971
829.275, 19805.301
829.757, 19813.510
830.240, 19810.369
830.722, 19786.900
831.204, 19756.340
831.686, 19746.170
832.168, 19766.811
832.650, 19767.260
833.132, 19697.061
833.614, 19639.961
834.096, 19662.160
834.579, 19719.539
835.061, 19752.039
835.543, 19750.551
836.025, 19738.529
836.507, 19725.061
836.989, 19716.510
837.471, 19725.061
837.953, 19742.561
838.435, 19749.160
838.918, 19745.250
839.400, 19749.609
839.882, 19772.869
840.364, 19799.221
840.846, 19803.010
841.328, 19785.881
841.810, 19768.680
842.292, 19753.020
842.774, 19718.381
843.257, 19647.881
843.739, 19587.830
844.221, 19591.449
844.703, 19652.631
845.185, 19699.301
845.667, 19726.350
846.149, 19749.250
846.631, 19778.420
847.114, 19793.279
847.596, 19765.609
848.078, 19720.830
848.560, 19711.000
849.042, 19750.461
849.524, 19779.580
850.006, 19770.100
850.488, 19765.910
850.971, 19805.730
851.453, 19852.170
851.935, 19855.199
852.417, 19814.160
852.899, 19769.760
853.381, 19736.990
853.863, 19716.289
854.345, 19720.051
854.828, 19729.561
855.310, 19710.449
855.792, 19670.330
856.274, 19648.051
856.756, 19661.430
857.238, 19682.670
857.720, 19674.730
858.202, 19648.301
858.684, 19634.211
859.167, 19632.480
859.649, 19644.891
860.131, 19672.619
860.613, 19694.961
861.095, 19691.529
861.577, 19669.770
862.059, 19656.131
862.541, 19649.080
863.023, 19664.180
863.506, 19719.449
863.988, 19750.670
864.470, 19706.199
864.952, 19636.279
865.434, 19635.561
865.916, 19724.010
866.398, 19776.471
866.880, 19777.920
867.362, 19762.881
867.845, 19729.699
868.327, 19689.301
868.809, 19641.461
869.291, 19593.211
869.773, 19568.551
870.255, 19578.660
870.737, 19598.631
871.219, 19641.311
871.701, 19671.340
872.184, 19641.711
872.666, 19591.270
873.148, 19597.529
873.630, 19672.260
874.112, 19724.400
874.594, 19668.430
875.076, 19591.520
875.558, 19565.990
876.041, 19580.539
876.523, 19637.600
877.005, 19718.609
877.487, 19753.430
877.969, 19699.711
878.451, 19627.350
878.933, 19642.221
879.415, 19712.350
879.898, 19739.170
880.380, 19724.369
880.862, 19713.689
881.344, 19722.100
881.826, 19735.600
882.308, 19741.590
882.790, 19739.820
883.272, 19727.240
883.755, 19703.150
884.237, 19675.850
884.719, 19640.070
885.201, 19633.000
885.683, 19689.141
886.165, 19765.961
886.647, 19781.680
887.129, 19727.090
887.611, 19673.680
888.094, 19609.381
888.576, 19568.250
889.058, 19567.500
889.540, 19584.090
890.022, 19602.801
890.504, 19622.770
890.986, 19641.600
891.468, 19667.340
891.950, 19676.330
892.433, 19646.420
892.915, 19620.820
893.397, 19621.939
893.879, 19639.160
894.361, 19664.270
894.843, 19694.000
895.325, 19705.010
895.807, 19674.980
896.289, 19641.211
896.772, 19616.020
897.254, 19601.301
897.736, 19606.000
898.218, 19621.750
898.700, 19626.340
899.182, 19610.971
899.664, 19595.131
900.146, 19585.381
900.628, 19589.779
901.111, 19636.350
901.593, 19698.660
902.075, 19722.529
902.557, 19699.580
903.039, 19652.660
903.521, 19589.480
904.003, 19538.461
904.485, 19558.939
904.968, 19623.529
905.450, 19652.020
905.932, 19642.430
906.414, 19623.260
906.896, 19605.631
907.378, 19592.490
907.860, 19585.930
908.342, 19587.939
908.825, 19610.590
909.307, 19653.490
909.789, 19694.660
910.271, 19733.119
910.753, 19740.250
911.235, 19690.770
911.717, 19622.230
912.199, 19611.801
912.682, 19667.000
913.164, 19680.061
913.646, 19632.990
914.128, 19605.199
914.610, 19630.301
915.092, 19655.100
915.574, 19621.631
916.056, 19552.471
916.538, 19548.600
917.021, 19670.080
917.503, 19728.551
917.985, 19677.189
918.467, 19627.141
918.949, 19631.039
919.431, 19650.881
919.913, 19638.740
920.395, 19596.230
920.877, 19574.221
921.360, 19593.881
921.842, 19608.301
922.324, 19611.480
922.806, 19605.721
923.288, 19581.730
923.770, 19553.971
924.252, 19545.670
924.734, 19560.689
925.216, 19590.711
925.699, 19647.400
926.181, 19701.449
926.663, 19757.699
927.145, 19790.730
927.627, 19750.320
928.109, 19665.949
928.591, 19631.150
929.073, 19687.260
929.555, 19737.090
930.038, 19710.189
930.520, 19665.391
931.002, 19646.250
931.484, 19647.391
931.966, 19658.070
932.448, 19675.410
932.930, 19700.189
933.412, 19734.850
933.895, 19771.211
934.377, 19811.420
934.859, 19842.211
935.341, 19844.570
935.823, 19820.500
936.305, 19767.990
936.787, 19692.311
937.269, 19634.570
937.752, 19634.580
938.234, 19665.029
938.716, 19691.289
939.198, 19711.740
939.680, 19720.480
940.162, 19717.949
940.644, 19707.119
941.126, 19689.490
941.609, 19673.080
942.091, 19663.449
942.573, 19664.750
943.055, 19703.090
943.537, 19768.631
944.019, 19791.230
944.501, 19760.600
944.983, 19732.279
945.465, 19740.449
945.948, 19768.109
946.430, 19786.699
946.912, 19797.141
947.394, 19812.641
947.876, 19833.400
948.358, 19845.520
948.840, 19845.699
949.322, 19829.529
949.804, 19786.900
950.287, 19740.100
950.769, 19755.461
951.251, 19839.590
951.733, 19915.350
952.215, 19985.289
952.697, 20017.109
953.179, 19987.221
953.661, 19955.260
954.143, 19986.199
954.626, 20064.699
955.108, 20112.619
955.590, 20124.090
956.072, 20127.770
956.554, 20125.400
957.036, 20111.199
957.518, 20063.740
958.000, 20034.551
958.482, 20105.939
958.965, 20270.881
959.447, 20347.641
959.929, 20294.910
960.411, 20250.449
960.893, 20220.811
961.375, 20214.160
961.857, 20252.359
962.339, 20302.301
962.822, 20305.381
963.304, 20254.939
963.786, 20230.680
964.268, 20244.449
964.750, 20264.850
965.232, 20300.471
965.714, 20327.330
966.196, 20330.930
966.679, 20315.580
967.161, 20286.061
967.643, 20235.020
968.125, 20203.211
968.607, 20221.221
969.089, 20217.779
969.571, 20150.529
970.053, 20083.010
970.536, 20064.131
971.018, 20080.301
971.500, 20099.039
971.982, 20128.689
972.464, 20124.061
972.946, 20038.109
973.428, 19971.189
973.910, 19970.900
974.392, 19990.561
974.875, 19991.801
975.357, 19977.199
975.839, 19962.510
976.321, 19946.170
976.803, 19940.080
977.285, 19972.420
977.767, 19983.971
978.249, 19929.000
978.731, 19854.801
979.214, 19808.311
979.696, 19788.420
980.178, 19773.920
980.660, 19763.730
981.142, 19750.619
981.624, 19720.289
982.106, 19700.641
982.588, 19717.279
983.070, 19746.670
983.553, 19762.369
984.035, 19762.900
984.517, 19759.240
984.999, 19760.359
985.481, 19746.170
985.963, 19699.461
986.445, 19646.619
986.927, 19601.369
987.409, 19562.189
987.892, 19522.660
988.374, 19483.961
988.856, 19458.711
989.338, 19466.439
989.820, 19461.619
990.302, 19396.619
990.784, 19342.471
991.266, 19363.650
991.749, 19422.480
992.231, 19468.160
992.713, 19489.670
993.195, 19479.449
993.677, 19404.740
994.159, 19343.570
994.641, 19337.461
995.123, 19351.570
995.606, 19352.971
996.088, 19357.779
996.570, 19400.260
997.052, 19483.061
997.534, 19566.730
998.016, 19644.850
998.498, 19705.711
998.980, 19753.619
999.463, 19772.359
999.945, 19723.221
1000.427, 19645.551
1000.909, 19607.539
1001.391, 19620.430
1001.873, 19639.801
1002.355, 19648.109
1002.837, 19655.891
1003.319, 19670.570
1003.802, 19684.689
1004.284, 19698.789
1004.766, 19704.891
1005.248, 19686.730
1005.730, 19642.539
1006.212, 19598.260
1006.694, 19558.961
1007.176, 19530.721
1007.658, 19509.471
1008.141, 19507.539
1008.623, 19569.471
1009.105, 19645.990
1009.587, 19627.939
1010.069, 19500.680
1010.551, 19419.410
1011.033, 19502.340
1011.515, 19576.891
1011.997, 19538.350
1012.480, 19479.930
1012.962, 19492.850
1013.444, 19539.410
1013.926, 19529.811
1014.408, 19450.449
1014.890, 19399.850
1015.372, 19439.949
1015.854, 19485.080
1016.337, 19509.391
1016.819, 19512.939
1017.301, 19475.891
1017.783, 19426.551
1018.265, 19416.580
1018.747, 19453.619
1019.229, 19486.670
1019.711, 19504.770
1020.193, 19506.990
1020.676, 19485.570
1021.158, 19502.721
1021.640, 19510.510
1022.122, 19509.441
1022.604, 19472.988
1023.086, 19482.229
1023.568, 19473.156
1024.050, 19473.150
1024.533, 19450.830
1025.015, 19372.119
1025.497, 19303.170
1025.979, 19297.240
1026.461, 19326.961
1026.943, 19351.391
1027.425, 19365.391
1027.907, 19372.381
1028.390, 19366.510
1028.872, 19363.100
1029.354, 19346.840
1029.836, 19353.961
1030.318, 19446.631
1030.800, 19553.180
1031.282, 19550.590
1031.764, 19438.270
1032.246, 19388.211
1032.729, 19502.500
1033.211, 19564.350
1033.693, 19495.359
1034.175, 19420.039
1034.657, 19392.789
1035.139, 19399.930
1035.621, 19434.029
1036.103, 19491.400
1036.585, 19524.410
1037.068, 19517.740
1037.550, 19506.869
1038.032, 19478.100
1038.514, 19464.619
1038.996, 19498.590
1039.478, 19541.080
1039.960, 19546.510
1040.442, 19519.590
1040.925, 19502.430
1041.407, 19512.900
1041.889, 19483.664
1042.371, 19518.393
1042.853, 19537.592
1043.335, 19542.100
1043.817, 19487.912
1044.299, 19509.518
1044.781, 19500.748
1045.264, 19490.732
1045.746, 19523.008
1046.228, 19477.355
1046.710, 19508.959
1047.192, 19509.723
1047.674, 19524.602
1048.156, 19508.918
1048.638, 19501.869
1049.120, 19477.754
1049.603, 19503.980
1050.085, 19517.990
1050.567, 19520.434
1051.049, 19476.680
1051.531, 19492.582
1052.013, 19484.578
1052.495, 19475.592
1052.977, 19499.891
1053.460, 19462.854
1053.942, 19486.623
1054.424, 19486.123
1054.906, 19496.730
1055.388, 19483.283
1055.870, 19476.631
1056.352, 19471.461
1056.834, 19465.480
1057.317, 19480.080
1057.799, 19496.590
1058.281, 19478.199
1058.763, 19432.811
1059.245, 19420.840
1059.727, 19439.301
1060.209, 19448.520
1060.691, 19442.270
1061.173, 19432.631
1061.656, 19425.881
1062.138, 19419.689
1062.620, 19413.539
1063.102, 19403.961
1063.584, 19375.600
1064.066, 19335.449
1064.548, 19311.490
1065.030, 19303.820
1065.512, 19287.150
1065.995, 19252.930
1066.477, 19237.330
1066.959, 19286.930
1067.441, 19354.551
1067.923, 19355.840
1068.405, 19322.859
1068.887, 19315.410
1069.369, 19333.949
1069.852, 19369.830
1070.334, 19415.150
1070.816, 19436.850
1071.298, 19402.930
1071.780, 19360.740
1072.262, 19357.730
1072.744, 19372.869
1073.226, 19385.311
1073.708, 19394.090
1074.191, 19406.520
1074.673, 19419.100
1075.155, 19405.590
1075.637, 19337.670
1076.119, 19299.529
1076.601, 19386.461
1077.083, 19475.391
1077.565, 19460.939
1078.047, 19402.391
1078.530, 19374.289
1079.012, 19374.561
1079.494, 19361.730
1079.976, 19319.359
1080.458, 19293.510
1080.940, 19306.721
1081.422, 19329.100
1081.904, 19361.240
1082.386, 19385.561
1082.869, 19388.760
1083.351, 19373.330
1083.833, 19337.920
1084.315, 19275.260
1084.797, 19251.990
1085.279, 19320.150
1085.761, 19359.211
1086.243, 19322.061
1086.726, 19289.240
1087.208, 19319.410
1087.690, 19362.430
1088.172, 19340.600
1088.654, 19257.920
1089.136, 19214.170
1089.618, 19216.500
1090.100, 19241.510
1090.583, 19303.670
1091.065, 19340.980
1091.547, 19318.240
1092.029, 19289.920
1092.511, 19316.279
1092.993, 19374.750
1093.475, 19380.539
1093.957, 19329.211
1094.439, 19298.631
1094.922, 19291.449
1095.404, 19296.449
1095.886, 19311.119
1096.368, 19331.711
1096.850, 19357.240
1097.332, 19378.619
1097.814, 19375.289
1098.296, 19354.580
1098.778, 19348.051
1099.261, 19352.631
1099.743, 19357.170
1100.225, 19358.080
1100.707, 19343.721
1101.189, 19308.939
1101.671, 19278.949
1102.153, 19282.590
1102.635, 19303.109
1103.118, 19319.580
1103.600, 19333.359
1104.082, 19354.850
1104.564, 19374.320
1105.046, 19360.820
1105.528, 19310.141
1106.010, 19259.020
1106.492, 19226.961
1106.974, 19205.240
1107.457, 19179.039
1107.939, 19169.609
1108.421, 19222.641
1108.903, 19287.520
1109.385, 19279.320
1109.867, 19209.850
1110.349, 19176.199
1110.831, 19215.721
1111.313, 19251.920
1111.796, 19253.590
1112.278, 19260.471
1112.760, 19300.381
1113.242, 19340.260
1113.724, 19350.391
1114.206, 19339.930
1114.688, 19335.109
1115.170, 19340.520
1115.653, 19316.270
1116.135, 19218.020
1116.617, 19187.801
1117.099, 19289.789
1117.581, 19366.650
1118.063, 19331.000
1118.545, 19256.150
1119.027, 19231.490
1119.510, 19248.381
1119.992, 19258.051
1120.474, 19259.301
1120.956, 19277.391
1121.438, 19316.590
1121.920, 19320.051
1122.402, 19268.520
1122.884, 19226.439
1123.366, 19246.631
1123.849, 19289.260
1124.331, 19266.029
1124.813, 19210.320
1125.295, 19258.350
1125.777, 19370.881
1126.259, 19401.529
1126.741, 19342.020
1127.223, 19281.609
1127.705, 19259.570
1128.188, 19255.150
1128.670, 19259.230
1129.152, 19260.920
1129.634, 19237.100
1130.116, 19213.020
1130.598, 19228.359
1131.080, 19265.869
1131.562, 19289.881
1132.045, 19293.051
1132.527, 19281.250
1133.009, 19248.250
1133.491, 19220.619
1133.973, 19216.180
1134.455, 19211.650
1134.937, 19192.789
1135.419, 19169.449
1135.901, 19143.250
1136.384, 19122.090
1136.866, 19132.270
1137.348, 19187.689
1137.830, 19218.561
1138.312, 19214.539
1138.794, 19204.020
1139.276, 19184.650
1139.758, 19172.160
1140.240, 19176.971
1140.723, 19188.730
1141.205, 19195.590
1141.687, 19196.330
1142.169, 19179.801
1142.651, 19144.779
1143.133, 19130.490
1143.615, 19139.391
1144.097, 19160.311
1144.580, 19189.789
1145.062, 19206.141
1145.544, 19190.920
1146.026, 19171.369
1146.508, 19193.180
1146.990, 19239.289
1147.472, 19284.869
1147.954, 19319.180
1148.437, 19313.430
1148.919, 19272.391
1149.401, 19218.811
1149.883, 19162.600
1150.365, 19125.859
1150.847, 19138.109
1151.329, 19153.430
1151.811, 19129.199
1152.293, 19104.619
1152.776, 19117.830
1153.258, 19151.109
1153.740, 19180.180
1154.222, 19201.770
1154.704, 19221.330
1155.186, 19254.320
1155.668, 19244.779
1156.150, 19125.279
1156.632, 19049.000
1157.115, 19080.770
1157.597, 19127.830
1158.079, 19130.961
1158.561, 19113.770
1159.043, 19115.029
1159.525, 19133.811
1160.007, 19161.211
1160.489, 19199.699
1160.972, 19225.150
1161.454, 19235.680
1161.936, 19221.199
1162.418, 19177.039
1162.900, 19137.660
1163.382, 19132.850
1163.864, 19143.869
1164.346, 19140.789
1164.828, 19126.711
1165.311, 19094.131
1165.793, 19061.270
1166.275, 19093.830
1166.757, 19175.770
1167.239, 19212.990
1167.721, 19172.189
1168.203, 19117.539
1168.685, 19076.010
1169.167, 19058.211
1169.650, 19086.189
1170.132, 19125.170
1170.614, 19162.029
1171.096, 19180.859
1171.578, 19139.881
1172.060, 19058.789
1172.542, 19049.199
1173.024, 19179.301
1173.507, 19228.061
1173.989, 19115.820
1174.471, 19036.189
1174.953, 19040.949
1175.435, 19057.801
1175.917, 19041.051
1176.399, 19021.279
1176.881, 19049.320
1177.364, 19111.189
1177.846, 19113.580
1178.328, 19057.811
1178.810, 19028.359
1179.292, 19028.760
1179.774, 19022.789
1180.256, 19000.811
1180.738, 18977.850
1181.220, 18963.270
1181.703, 18956.740
1182.185, 18957.859
1182.667, 18966.971
1183.149, 18993.000
1183.631, 19022.090
1184.113, 19031.529
1184.595, 19025.039
1185.077, 19013.820
1185.559, 19002.150
1186.042, 19000.119
1186.524, 19015.811
1187.006, 19034.070
1187.488, 19066.609
1187.970, 19079.699
1188.452, 19029.010
1188.934, 18977.520
1189.416, 18991.859
1189.899, 19042.961
1190.381, 19068.641
1190.863, 19068.369
1191.345, 19043.420
1191.827, 18984.529
1192.309, 18947.770
1192.791, 18940.240
1193.273, 18952.779
1193.755, 18983.480
1194.238, 19014.430
1194.720, 19029.789
1195.202, 19035.750
1195.684, 19043.689
1196.166, 19050.750
1196.648, 19047.891
1197.130, 19039.221
1197.612, 19034.510
1198.094, 19034.000
1198.577, 19032.580
1199.059, 19028.580
1199.541, 19024.840
1200.023, 19024.131
1200.505, 19021.730
1200.987, 19016.650
1201.469, 19007.090
1201.951, 18998.400
1202.434, 18979.221
1202.916, 18918.840
1203.398, 18838.891
1203.880, 18818.061
1204.362, 18868.449
1204.844, 18897.400
1205.326, 18899.400
1205.808, 18901.590
1206.291, 18911.051
1206.773, 18900.471
1207.255, 18854.971
1207.737, 18810.600
1208.219, 18803.029
1208.701, 18818.381
1209.183, 18832.471
1209.665, 18845.260
1210.147, 18849.520
1210.630, 18854.240
1211.112, 18893.250
1211.594, 18956.270
1212.076, 18987.760
1212.558, 18970.529
1213.040, 18958.711
1213.522, 19001.910
1214.004, 19028.881
1214.486, 18981.051
1214.969, 18931.779
1215.451, 18935.520
1215.933, 18955.580
1216.415, 18944.609
1216.897, 18915.990
1217.379, 18913.980
1217.861, 18941.301
1218.343, 18971.539
1218.826, 19007.539
1219.308, 19034.381
1219.790, 19049.689
1220.272, 19058.590
1220.754, 19062.109
1221.236, 19057.270
1221.718, 19033.012
1222.200, 19050.443
1222.682, 19057.752
1223.165, 19055.477
1223.647, 19014.957
1224.129, 19023.836
1224.611, 19012.918
1225.093, 19011.801
1225.575, 18975.080
1226.057, 18957.420
1226.539, 18955.590
1227.021, 18982.439
1227.504, 18998.189
1227.986, 18977.619
1228.468, 18958.439
1228.950, 18954.260
1229.432, 18963.461
1229.914, 19000.520
1230.396, 19035.900
1230.878, 19007.439
1231.361, 18921.539
1231.843, 18873.830
1232.325, 18865.090
1232.807, 18877.430
1233.289, 18908.619
1233.771, 18943.160
1234.253, 18975.090
1234.735, 18990.561
1235.218, 18980.850
1235.700, 18948.789
1236.182, 18872.270
1236.664, 18800.869
1237.146, 18805.490
1237.628, 18836.420
1238.110, 18830.801
1238.592, 18807.990
1239.074, 18810.660
1239.557, 18841.131
1240.039, 18876.711
1240.521, 18930.369
1241.003, 18938.449
1241.485, 18854.010
1241.967, 18814.670
1242.449, 18865.850
1242.931, 18905.920
1243.413, 18875.131
1243.896, 18848.381
1244.378, 18921.900
1244.860, 19035.480
1245.342, 19013.920
1245.824, 18903.100
1246.306, 18876.279
1246.788, 18907.971
1247.270, 18902.760
1247.753, 18856.561
1248.235, 18813.090
1248.717, 18788.570
1249.199, 18784.971
1249.681, 18815.461
1250.163, 18845.199
1250.645, 18869.500
1251.127, 18874.830
1251.609, 18834.830
1252.092, 18790.529
1252.574, 18782.590
1253.056, 18793.029
1253.538, 18784.480
1254.020, 18759.529
1254.502, 18769.689
1254.984, 18818.250
1255.466, 18841.131
1255.948, 18834.840
1256.431, 18825.330
1256.913, 18821.279
1257.395, 18840.270
1257.877, 18894.180
1258.359, 18937.510
1258.841, 18906.180
1259.323, 18861.920
1259.805, 18857.439
1260.288, 18879.760
1260.770, 18938.510
1261.252, 18999.600
1261.734, 19011.480
1262.216, 18980.471
1262.698, 18954.580
1263.180, 18937.500
1263.662, 18928.311
1264.145, 18927.250
1264.627, 18934.740
1265.109, 18953.850
1265.591, 18967.471
1266.073, 18969.180
1266.555, 18963.840
1267.037, 18955.369
1267.519, 18943.910
1268.001, 18922.561
1268.484, 18902.211
1268.966, 18909.350
1269.448, 18931.250
1269.930, 18959.391
1270.412, 18976.900
1270.894, 18935.939
1271.376, 18845.670
1271.858, 18809.811
1272.340, 18877.949
1272.823, 18926.920
##END=



