##NAMES=Bultfonteinite
##RRUFFID=R050088
##IDEAL CHEMISTRY=Ca_2_[SiO_3_(OH)]F&#183;H_2_O
##LOCALITY=N'Chwaning II mine, Kuruman, South Africa
##OWNER=RRUFF
##SOURCE=Rock Currier
##DESCRIPTION=Sprays of acicular white crystals associated with olmiite, R050144
##STATUS=The identification of this mineral is confirmed by single-crystal X-ray diffraction and chemical analysis.
##URL=rruff.info/R050088
##MEASURED CHEMISTRY=Ca_1.96_[Si_0.97_O_3_(OH)_1.00_]F_1.00_&#183;0.61H_2_O; OH estimated by charge balance; H_2_O by difference
134.163, 13010.000
134.999, 13130.000
135.836, 13470.000
136.672, 13750.000
137.507, 14180.000
138.343, 14510.000
139.179, 14270.000
140.015, 14130.000
140.850, 13900.000
141.686, 13850.000
142.521, 14100.000
143.356, 14360.000
144.191, 14840.000
145.026, 15550.000
145.861, 16255.740
146.696, 17510.000
147.531, 18180.000
148.365, 19200.000
149.200, 20470.000
150.035, 21450.000
150.869, 22390.000
151.703, 23240.000
152.537, 24310.000
153.371, 24740.000
154.205, 24924.359
155.039, 25000.000
155.873, 24480.000
156.707, 23950.000
157.541, 23130.000
158.374, 22630.000
159.207, 21100.000
160.041, 19260.000
160.874, 17740.000
161.707, 16400.000
162.540, 15510.000
163.373, 14590.000
164.206, 13950.000
165.039, 13450.000
165.872, 13160.000
166.704, 12760.000
167.537, 12670.000
168.369, 12630.000
169.201, 12640.000
170.033, 12600.000
170.866, 12420.000
171.698, 12310.000
172.530, 12350.000
173.361, 12280.000
174.193, 12290.000
175.025, 12460.000
175.856, 12590.000
176.688, 12890.000
177.519, 13280.000
178.350, 13580.000
179.181, 13620.000
180.013, 13840.000
180.844, 13980.000
181.674, 13970.000
182.505, 13900.000
183.336, 13960.000
184.166, 13950.000
184.997, 14300.000
185.827, 14370.000
186.658, 14290.000
187.488, 14240.000
188.318, 14000.000
189.148, 13890.000
189.978, 13910.000
190.808, 13830.000
191.638, 13810.000
192.467, 13630.000
193.297, 13780.000
194.126, 13940.000
194.956, 13910.000
195.785, 13840.000
196.614, 14060.000
197.443, 13900.000
198.272, 13750.000
199.101, 13370.000
199.930, 13222.890
200.759, 12900.000
201.587, 12760.000
202.416, 12460.000
203.244, 12210.000
204.073, 12080.000
204.901, 12230.000
205.729, 12150.000
206.557, 12110.000
207.385, 12180.000
208.213, 12230.000
209.041, 12300.000
209.868, 12450.000
210.696, 12680.000
211.523, 12690.000
212.351, 12760.000
213.178, 12840.000
214.005, 12520.000
214.832, 12610.000
215.659, 12380.000
216.486, 12270.000
217.313, 12290.000
218.140, 12140.000
218.967, 11980.000
219.793, 12040.000
220.620, 12010.000
221.446, 11890.000
222.272, 11810.000
223.098, 11769.720
223.925, 11750.000
224.751, 11630.000
225.576, 11640.000
226.402, 11470.000
227.228, 11610.000
228.054, 11440.000
228.879, 11420.000
229.705, 11480.000
230.530, 11480.000
231.355, 11570.000
232.180, 11630.000
233.005, 11780.000
233.830, 11920.000
234.655, 11950.000
235.480, 12110.000
236.305, 12300.000
237.129, 12610.000
237.954, 12810.000
238.778, 12990.000
239.602, 13220.000
240.427, 13256.070
241.251, 13350.000
242.075, 13250.000
242.899, 13080.000
243.723, 12920.000
244.546, 12950.000
245.370, 12770.000
246.194, 12700.000
247.017, 12760.000
247.841, 12700.000
248.664, 12680.000
249.487, 12840.000
250.310, 13050.000
251.133, 13160.000
251.956, 13300.000
252.779, 13550.000
253.602, 13800.000
254.424, 13930.000
255.247, 14124.330
256.069, 14239.720
256.892, 14370.000
257.714, 14430.000
258.536, 14460.000
259.358, 14540.000
260.180, 14560.000
261.002, 14680.000
261.824, 14980.000
262.646, 15460.000
263.467, 15786.930
264.289, 16450.000
265.110, 16910.000
265.931, 17610.000
266.753, 18284.039
267.574, 19044.590
268.395, 19840.000
269.216, 20720.000
270.037, 21750.000
270.858, 22600.000
271.678, 23470.000
272.499, 24710.000
273.319, 25690.000
274.140, 27000.000
274.960, 28380.000
275.780, 30210.000
276.600, 31630.000
277.420, 33420.000
278.240, 34320.000
279.060, 35630.000
279.880, 36100.000
280.700, 35410.000
281.519, 34270.000
282.339, 32980.000
283.158, 31270.000
283.977, 29030.000
284.797, 27080.000
285.616, 25470.000
286.435, 24100.000
287.254, 22880.000
288.073, 21760.000
288.891, 20960.000
289.710, 20220.000
290.529, 19460.000
291.347, 18910.000
292.165, 18360.000
292.984, 17830.000
293.802, 17090.000
294.620, 16890.000
295.438, 16420.000
296.256, 15940.000
297.074, 15740.000
297.891, 15440.000
298.709, 15280.000
299.527, 14960.000
300.344, 14880.000
301.161, 14760.000
301.979, 14560.000
302.796, 14570.000
303.613, 14531.170
304.430, 14590.000
305.247, 14610.000
306.064, 14660.000
306.880, 14730.000
307.697, 14610.000
308.514, 14970.000
309.330, 14920.000
310.146, 15170.000
310.963, 15290.000
311.779, 15510.000
312.595, 15760.000
313.411, 15970.000
314.227, 16210.000
315.043, 16440.000
315.858, 16430.000
316.674, 16550.000
317.489, 16760.000
318.305, 16910.000
319.120, 16790.000
319.935, 17070.000
320.751, 16970.000
321.566, 16810.000
322.381, 16840.000
323.195, 16800.000
324.010, 16550.000
324.825, 16570.000
325.640, 16360.000
326.454, 16270.000
327.268, 15940.000
328.083, 15902.550
328.897, 15760.000
329.711, 15740.000
330.525, 15760.000
331.339, 15680.000
332.153, 15770.000
332.967, 15760.000
333.781, 16040.000
334.594, 15840.000
335.408, 15860.000
336.221, 15960.000
337.034, 15610.000
337.848, 15590.000
338.661, 15560.000
339.474, 15390.000
340.287, 15500.000
341.100, 15730.000
341.912, 15860.000
342.725, 15840.000
343.538, 15820.000
344.350, 15770.000
345.163, 15761.500
345.975, 15700.000
346.787, 15770.000
347.599, 15750.000
348.411, 15850.000
349.223, 15810.000
350.035, 15870.000
350.847, 15910.000
351.659, 15940.000
352.470, 15917.420
353.282, 15884.680
354.093, 15830.000
354.904, 15740.000
355.716, 15680.000
356.527, 15570.000
357.338, 15790.000
358.149, 16010.000
358.960, 16150.000
359.770, 16190.000
360.581, 16330.000
361.392, 16310.000
362.202, 16520.000
363.012, 16677.449
363.823, 17100.000
364.633, 17050.000
365.443, 17410.000
366.253, 17500.000
367.063, 17470.000
367.873, 17560.000
368.683, 17090.000
369.492, 16900.000
370.302, 16830.000
371.112, 16540.000
371.921, 16350.000
372.730, 16170.000
373.539, 15910.000
374.349, 15710.000
375.158, 15440.000
375.967, 15380.000
376.775, 15230.000
377.584, 14950.000
378.393, 14810.000
379.201, 14860.000
380.010, 14800.000
380.818, 14720.000
381.627, 14670.000
382.435, 14560.000
383.243, 14650.000
384.051, 14700.000
384.859, 14770.000
385.667, 14752.690
386.475, 14840.000
387.282, 14680.000
388.090, 14600.000
388.897, 14540.000
389.705, 14560.000
390.512, 14500.000
391.319, 14390.000
392.126, 14250.000
392.933, 14190.000
393.740, 13980.000
394.547, 13800.000
395.354, 13780.000
396.161, 13650.000
396.967, 13510.000
397.774, 13460.000
398.580, 13360.000
399.387, 13290.000
400.193, 13180.000
400.999, 13110.000
401.805, 13070.000
402.611, 12930.000
403.417, 12920.000
404.223, 12770.000
405.028, 12880.000
405.834, 12760.000
406.639, 12780.000
407.445, 12650.000
408.250, 12520.000
409.055, 12730.000
409.861, 12430.000
410.666, 12510.000
411.471, 12480.000
412.275, 12460.000
413.080, 12290.000
413.885, 12380.000
414.690, 12230.000
415.494, 12240.000
416.298, 12230.000
417.103, 12190.000
417.907, 12250.000
418.711, 12140.000
419.515, 12120.000
420.319, 12200.000
421.123, 12110.000
421.927, 12160.000
422.731, 12090.000
423.534, 12120.000
424.338, 12000.000
425.141, 12090.000
425.945, 12020.000
426.748, 12170.000
427.551, 12050.000
428.354, 11970.000
429.157, 12140.000
429.960, 12180.000
430.763, 12130.000
431.565, 12120.000
432.368, 12230.000
433.171, 12250.000
433.973, 12270.000
434.775, 12190.000
435.578, 12150.000
436.380, 12150.000
437.182, 12120.000
437.984, 12150.000
438.786, 12210.000
439.588, 12310.000
440.389, 12260.000
441.191, 12270.000
441.993, 12210.000
442.794, 12270.000
443.595, 12340.000
444.397, 12370.000
445.198, 12330.000
445.999, 12380.000
446.800, 12370.000
447.601, 12340.000
448.402, 12470.000
449.202, 12460.000
450.003, 12370.000
450.804, 12480.000
451.604, 12420.000
452.405, 12430.000
453.205, 12370.000
454.005, 12420.000
454.805, 12370.000
455.605, 12490.000
456.405, 12500.000
457.205, 12480.000
458.005, 12470.000
458.804, 12510.000
459.604, 12487.980
460.403, 12420.000
461.203, 12470.000
462.002, 12470.000
462.801, 12430.000
463.601, 12540.000
464.400, 12470.000
465.199, 12490.000
465.997, 12460.000
466.796, 12450.000
467.595, 12420.000
468.393, 12450.000
469.192, 12490.000
469.990, 12480.000
470.789, 12370.000
471.587, 12510.000
472.385, 12470.000
473.183, 12520.000
473.981, 12570.000
474.779, 12558.650
475.577, 12580.000
476.375, 12600.000
477.172, 12580.000
477.970, 12640.000
478.767, 12540.000
479.565, 12750.000
480.362, 12700.000
481.159, 12870.000
481.956, 12790.000
482.753, 12920.000
483.550, 12970.000
484.347, 13010.000
485.143, 13140.000
485.940, 13160.000
486.737, 13350.000
487.533, 13430.000
488.330, 13580.000
489.126, 13810.000
489.922, 13930.000
490.718, 14150.000
491.514, 14210.000
492.310, 14380.000
493.106, 14500.000
493.902, 14890.000
494.697, 14970.000
495.493, 15080.000
496.288, 15280.000
497.084, 15330.000
497.879, 15290.000
498.674, 15400.000
499.469, 15070.000
500.264, 15100.000
501.059, 14970.000
501.854, 14790.000
502.649, 14600.000
503.444, 14490.000
504.238, 14400.000
505.033, 14070.000
505.827, 14100.000
506.622, 13880.000
507.416, 13770.000
508.210, 13650.000
509.004, 13560.000
509.798, 13550.000
510.592, 13420.000
511.386, 13390.000
512.179, 13270.000
512.973, 13170.000
513.767, 13173.140
514.560, 13116.420
515.353, 13180.000
516.147, 13120.000
516.940, 13150.000
517.733, 13190.000
518.526, 13170.000
519.319, 13200.000
520.112, 13210.000
520.905, 13280.000
521.697, 13222.620
522.490, 13040.000
523.282, 13110.000
524.075, 13080.000
524.867, 13000.000
525.659, 13160.000
526.451, 13170.000
527.243, 13340.000
528.035, 13200.000
528.827, 13280.000
529.619, 13370.000
530.411, 13440.000
531.202, 13560.000
531.994, 13670.000
532.785, 13750.000
533.576, 13990.000
534.368, 13970.000
535.159, 14140.000
535.950, 14290.000
536.741, 14550.000
537.532, 14600.000
538.323, 14510.000
539.113, 14760.000
539.904, 14390.000
540.694, 14460.000
541.485, 14300.000
542.275, 14140.000
543.066, 13850.000
543.856, 13730.000
544.646, 13590.000
545.436, 13320.000
546.226, 13080.000
547.016, 13080.000
547.805, 12940.000
548.595, 12730.000
549.385, 12740.000
550.174, 12600.000
550.964, 12440.000
551.753, 12380.000
552.542, 12370.000
553.331, 12300.000
554.120, 12260.000
554.909, 12230.000
555.698, 12210.000
556.487, 12200.000
557.276, 12165.860
558.064, 12070.000
558.853, 12120.000
559.641, 12060.000
560.429, 12060.000
561.218, 11860.000
562.006, 12000.000
562.794, 11970.000
563.582, 11820.000
564.370, 12000.000
565.158, 11850.000
565.945, 11890.000
566.733, 11930.000
567.521, 11770.000
568.308, 11830.000
569.096, 11890.000
569.883, 11800.000
570.670, 11780.000
571.457, 11870.000
572.244, 11760.000
573.031, 11890.000
573.818, 11850.000
574.605, 11840.540
575.391, 11830.000
576.178, 11740.000
576.965, 11880.000
577.751, 11670.000
578.537, 11850.000
579.324, 11960.000
580.110, 11670.000
580.896, 11750.000
581.682, 11830.000
582.468, 11890.000
583.254, 11850.000
584.039, 11820.000
584.825, 11820.000
585.610, 11790.000
586.396, 11870.000
587.181, 11890.000
587.967, 11800.000
588.752, 11900.000
589.537, 11920.000
590.322, 11820.000
591.107, 11850.000
591.892, 11850.000
592.677, 11910.000
593.461, 11840.000
594.246, 11960.000
595.030, 11810.000
595.815, 11990.000
596.599, 11920.000
597.383, 11890.000
598.167, 11890.000
598.952, 11960.000
599.736, 11850.000
600.519, 11920.000
601.303, 11910.000
602.087, 11880.000
602.871, 11920.000
603.654, 11870.000
604.438, 12000.000
605.221, 11980.000
606.004, 11990.000
606.788, 12000.000
607.571, 12000.000
608.354, 11980.000
609.137, 12003.040
609.919, 11970.000
610.702, 12020.000
611.485, 12040.000
612.268, 12020.000
613.050, 11960.000
613.832, 12010.000
614.615, 12050.000
615.397, 12100.000
616.179, 12070.000
616.961, 12080.000
617.743, 12030.000
618.525, 12020.000
619.307, 12100.000
620.089, 12070.000
620.870, 12180.000
621.652, 12070.000
622.433, 12120.000
623.215, 12160.000
623.996, 12130.000
624.777, 12270.000
625.558, 12160.000
626.340, 12180.000
627.120, 12230.000
627.901, 12200.000
628.682, 12260.000
629.463, 12245.150
630.243, 12260.000
631.024, 12260.000
631.804, 12180.000
632.585, 12240.000
633.365, 12150.000
634.145, 12310.000
634.925, 12300.000
635.705, 12190.000
636.485, 12280.000
637.265, 12240.000
638.045, 12210.000
638.824, 12290.000
639.604, 12230.000
640.383, 12360.000
641.163, 12250.000
641.942, 12320.000
642.721, 12290.000
643.501, 12330.000
644.280, 12230.000
645.059, 12350.000
645.837, 12290.000
646.616, 12400.000
647.395, 12290.000
648.174, 12410.000
648.952, 12450.000
649.731, 12300.000
650.509, 12290.000
651.287, 12410.000
652.065, 12320.000
652.844, 12470.000
653.622, 12440.000
654.400, 12450.000
655.177, 12460.000
655.955, 12550.000
656.733, 12560.000
657.510, 12460.000
658.288, 12620.000
659.065, 12500.000
659.843, 12490.000
660.620, 12580.000
661.397, 12560.000
662.174, 12560.000
662.951, 12660.000
663.728, 12640.000
664.505, 12710.000
665.282, 12770.000
666.058, 12730.000
666.835, 12670.000
667.611, 12650.000
668.388, 12760.000
669.164, 12640.000
669.940, 12710.000
670.716, 12640.000
671.492, 12800.000
672.268, 12740.000
673.044, 12684.769
673.820, 12770.327
674.596, 12821.711
675.371, 12770.000
676.147, 12800.000
676.922, 12830.000
677.698, 12870.000
678.473, 12820.000
679.248, 12770.000
680.023, 12950.000
680.798, 12890.000
681.573, 12910.000
682.348, 12990.000
683.123, 12960.000
683.898, 12980.000
684.672, 13050.000
685.447, 13070.000
686.221, 12960.000
686.996, 13140.000
687.770, 13050.000
688.544, 12970.000
689.318, 13070.000
690.092, 13180.000
690.866, 13180.000
691.640, 13220.000
692.413, 13200.000
693.187, 13120.000
693.961, 13150.000
694.734, 13150.000
695.508, 13150.600
696.281, 13170.000
697.054, 13170.000
697.827, 13192.920
698.600, 13210.000
699.373, 13260.000
700.146, 13270.000
700.919, 13350.000
701.692, 13420.000
702.464, 13580.000
703.237, 13570.000
704.009, 13580.000
704.782, 13600.000
705.554, 13900.000
706.326, 14300.000
707.098, 14460.000
707.870, 15060.000
708.642, 15830.000
709.414, 17220.000
710.186, 18940.000
710.958, 20440.000
711.729, 20540.000
712.501, 19390.000
713.272, 17850.000
714.044, 16490.000
714.815, 15570.000
715.586, 14940.000
716.357, 14470.000
717.128, 14180.000
717.899, 13990.000
718.670, 13900.000
719.441, 13890.000
720.212, 13700.000
720.982, 13700.000
721.753, 13610.000
722.523, 13550.000
723.293, 13640.000
724.064, 13510.000
724.834, 13500.000
725.604, 13620.000
726.374, 13460.000
727.144, 13530.000
727.914, 13460.000
728.683, 13490.000
729.453, 13580.000
730.223, 13500.000
730.992, 13580.000
731.762, 13580.000
732.531, 13470.000
733.300, 13520.000
734.069, 13540.000
734.838, 13468.910
735.607, 13422.339
736.376, 13506.287
737.145, 13558.554
737.914, 13580.839
738.682, 13483.338
739.451, 13540.513
740.220, 13550.000
740.988, 13570.000
741.756, 13570.000
742.524, 13550.000
743.293, 13550.000
744.061, 13557.020
744.829, 13590.000
745.597, 13590.000
746.364, 13610.000
747.132, 13650.000
747.900, 13580.000
748.667, 13540.000
749.435, 13630.000
750.202, 13550.000
750.969, 13490.000
751.737, 13550.000
752.504, 13710.000
753.271, 13740.000
754.038, 13620.000
754.805, 13650.000
755.571, 13620.000
756.338, 13650.000
757.105, 13680.000
757.871, 13740.000
758.638, 13750.000
759.404, 13610.000
760.170, 13690.000
760.937, 13700.000
761.703, 13740.000
762.469, 13850.000
763.235, 13760.000
764.001, 13820.000
764.766, 13880.000
765.532, 13820.000
766.298, 13810.000
767.063, 13930.000
767.829, 13910.000
768.594, 14040.000
769.359, 13950.000
770.124, 13890.000
770.890, 14050.000
771.655, 13960.000
772.420, 14010.000
773.184, 14090.000
773.949, 14210.000
774.714, 14020.000
775.479, 14170.000
776.243, 14210.000
777.007, 14160.000
777.772, 14290.000
778.536, 14250.000
779.300, 14400.000
780.064, 14370.000
780.828, 14360.000
781.592, 14410.000
782.356, 14490.000
783.120, 14780.000
783.884, 14717.790
784.647, 14720.000
785.411, 14740.000
786.174, 14670.000
786.938, 14690.000
787.701, 14850.000
788.464, 14790.000
789.227, 14890.000
789.990, 15080.000
790.753, 15080.000
791.516, 15060.000
792.279, 15130.000
793.041, 15205.750
793.804, 15410.000
794.566, 15430.000
795.329, 15640.000
796.091, 15750.000
796.854, 15860.000
797.616, 16040.000
798.378, 15990.000
799.140, 16180.000
799.902, 16340.300
800.664, 16540.000
801.425, 16770.000
802.187, 16940.000
802.949, 17220.000
803.710, 17300.000
804.472, 17580.000
805.233, 17840.000
805.994, 18210.000
806.755, 18500.680
807.516, 18870.000
808.277, 19170.000
809.038, 19610.000
809.799, 19980.000
810.560, 20660.000
811.321, 20850.000
812.081, 21430.000
812.842, 22210.000
813.602, 22630.000
814.363, 23340.000
815.123, 23990.000
815.883, 24710.000
816.643, 25440.000
817.403, 26260.000
818.163, 26770.000
818.923, 27370.000
819.683, 28220.000
820.442, 28820.000
821.202, 29040.000
821.961, 29540.000
822.721, 30120.000
823.480, 30220.000
824.240, 30270.350
824.999, 29740.000
825.758, 29910.000
826.517, 29550.000
827.276, 29300.000
828.035, 28740.000
828.793, 28180.000
829.552, 27680.000
830.311, 27240.000
831.069, 26460.000
831.828, 25990.000
832.586, 25300.000
833.344, 24720.000
834.102, 24240.000
834.861, 23700.000
835.619, 23248.891
836.376, 22700.000
837.134, 22350.000
837.892, 21980.000
838.650, 21480.000
839.407, 21090.000
840.165, 20780.000
840.922, 20560.000
841.680, 19990.000
842.437, 20060.000
843.194, 19730.000
843.951, 19550.000
844.708, 19090.000
845.465, 19200.000
846.222, 18850.000
846.979, 18800.000
847.736, 18500.000
848.492, 18430.000
849.249, 18390.000
850.005, 18200.000
850.762, 18010.000
851.518, 17910.000
852.274, 17750.000
853.030, 17750.000
853.786, 17610.000
854.542, 17660.000
855.298, 17410.000
856.054, 17520.000
856.810, 17390.000
857.565, 17320.000
858.321, 17240.000
859.076, 17250.000
859.832, 17120.000
860.587, 17260.000
861.342, 16990.000
862.097, 17100.000
862.852, 16840.000
863.607, 16970.000
864.362, 16890.000
865.117, 16990.000
865.872, 16750.000
866.626, 16840.000
867.381, 16600.000
868.135, 16710.000
868.890, 16970.000
869.644, 16790.000
870.398, 16850.000
871.152, 16740.000
871.906, 16700.000
872.660, 16840.000
873.414, 16710.000
874.168, 16670.000
874.922, 16550.000
875.675, 16760.000
876.429, 16620.000
877.182, 16830.000
877.936, 16879.990
878.689, 16890.000
879.442, 17020.000
880.196, 16660.000
880.949, 16620.000
881.702, 16600.000
882.455, 16640.000
883.207, 16480.000
883.960, 16500.000
884.713, 16483.900
885.465, 16590.000
886.218, 16510.000
886.970, 16510.000
887.723, 16570.000
888.475, 16360.000
889.227, 16530.000
889.979, 16470.000
890.731, 16370.000
891.483, 16460.000
892.235, 16580.000
892.987, 16440.000
893.738, 16330.000
894.490, 16420.000
895.241, 16520.000
895.993, 16520.000
896.744, 16410.000
897.495, 16490.000
898.247, 16390.000
898.998, 16430.000
899.749, 16420.000
900.500, 16280.000
901.251, 16390.000
902.001, 16420.000
902.752, 16340.000
903.503, 16290.000
904.253, 16470.000
905.004, 16370.000
905.754, 16440.000
906.504, 16520.000
907.255, 16450.000
908.005, 16520.000
908.755, 16670.000
909.505, 16760.000
910.255, 16610.000
911.004, 16460.000
911.754, 16720.000
912.504, 16700.000
913.253, 16800.000
914.003, 16880.000
914.752, 16850.000
915.501, 17080.000
916.251, 17010.000
917.000, 17010.000
917.749, 17300.000
918.498, 17370.000
919.247, 17230.000
919.996, 17500.000
920.744, 17490.000
921.493, 17550.000
922.242, 17570.000
922.990, 17670.000
923.738, 17730.000
924.487, 17744.449
925.235, 17810.000
925.983, 17800.000
926.731, 17810.000
927.479, 17890.000
928.227, 17900.000
928.975, 17930.000
929.723, 17910.000
930.470, 17900.000
931.218, 18090.000
931.966, 18160.000
932.713, 18170.000
933.460, 18260.000
934.208, 18280.000
934.955, 18480.000
935.702, 18380.000
936.449, 18530.000
937.196, 18830.000
937.943, 18770.000
938.690, 18800.000
939.436, 18980.000
940.183, 19070.000
940.929, 19176.510
941.676, 19530.000
942.422, 19430.000
943.169, 19760.000
943.915, 19960.000
944.661, 20030.000
945.407, 20320.000
946.153, 20480.000
946.899, 20630.000
947.645, 20680.000
948.390, 20940.000
949.136, 21160.000
949.882, 21370.000
950.627, 21590.000
951.373, 21690.000
952.118, 21830.000
952.863, 22150.000
953.608, 22420.000
954.353, 22800.000
955.098, 23060.000
955.843, 23350.641
956.588, 23480.000
957.333, 23780.000
958.078, 24040.000
958.822, 24010.000
959.567, 23992.961
960.311, 23740.000
961.056, 23510.000
961.800, 23050.000
962.544, 22490.000
963.288, 22460.000
964.032, 21730.000
964.776, 21420.000
965.520, 20700.000
966.264, 20380.000
967.007, 20020.000
967.751, 19770.000
968.495, 19390.000
969.238, 19110.000
969.982, 18780.000
970.725, 18680.000
971.468, 18490.000
972.211, 18320.000
972.954, 18120.000
973.697, 18140.000
974.440, 17930.000
975.183, 17940.000
975.926, 17860.000
976.668, 17700.000
977.411, 17590.000
978.153, 17510.000
978.896, 17640.000
979.638, 17670.000
980.380, 17540.000
981.123, 17690.000
981.865, 17580.000
982.607, 17590.000
983.349, 17560.000
984.091, 17640.000
984.832, 17510.000
985.574, 17710.000
986.316, 17650.000
987.057, 17850.000
987.799, 17730.000
988.540, 17690.000
989.281, 17860.000
990.023, 17810.000
990.764, 18110.000
991.505, 17970.000
992.246, 17980.000
992.987, 18190.000
993.727, 18190.000
994.468, 18140.000
995.209, 18230.000
995.949, 18300.000
996.690, 18365.189
997.430, 18420.000
998.171, 18580.000
998.911, 18640.000
999.651, 18770.000
1000.391, 18690.000
1001.131, 18620.000
1001.871, 18680.000
1002.611, 18720.000
1003.351, 18720.000
1004.090, 18600.000
1004.830, 18570.000
1005.570, 18550.000
1006.309, 18510.000
1007.048, 18540.000
1007.788, 18440.000
1008.527, 18460.000
1009.266, 18400.000
1010.005, 18240.000
1010.744, 18430.000
1011.483, 18250.000
1012.222, 18300.000
1012.961, 18540.000
1013.699, 18440.000
1014.438, 18120.000
1015.176, 18290.000
1015.915, 18550.000
1016.653, 18450.000
1017.391, 18730.000
1018.129, 18430.000
1018.867, 18450.000
1019.606, 18220.000
1020.343, 18040.000
1021.081, 17950.000
1021.819, 18010.000
1022.557, 18020.000
1023.294, 17970.000
1024.032, 17840.000
1024.769, 17810.000
1025.507, 18000.000
1026.244, 17870.000
1026.981, 18090.000
1027.718, 17940.000
1028.455, 17830.000
1029.192, 18030.000
1029.929, 17980.000
##END=



