##NAMES=Chalcocite
##RRUFFID=R050067
##IDEAL CHEMISTRY=Cu^1+^_2_S^2-^
##LOCALITY=Flambeau, Rusk County, Wisconsin, USA
##OWNER=RRUFF
##SOURCE=Rock Currier
##DESCRIPTION=Iridescent blue irregular hexagonal tablet
##STATUS=The identification of this mineral has been confirmed by X-ray diffraction and chemical analysis
##URL=rruff.info/R050067
##MEASURED CHEMISTRY=Cu_2.00_S_1.00_
157.911, 499.000
159.305, 502.000
160.698, 529.000
162.091, 569.000
163.483, 613.000
164.876, 528.000
166.268, 470.000
167.660, 379.000
169.051, 454.000
170.443, 531.000
171.834, 499.000
173.225, 522.000
174.615, 475.000
176.006, 484.000
177.396, 488.162
178.785, 484.000
180.175, 498.000
181.564, 475.000
182.953, 464.000
184.342, 512.000
185.731, 496.000
187.119, 567.000
188.507, 585.000
189.895, 535.000
191.283, 603.000
192.670, 603.000
194.057, 618.000
195.444, 823.000
196.830, 807.000
198.216, 932.000
199.603, 980.000
200.988, 1059.000
202.374, 1261.000
203.759, 1425.000
205.144, 1663.000
206.529, 1877.000
207.913, 2082.733
209.298, 2340.000
210.682, 2548.000
212.065, 2816.000
213.449, 3118.000
214.832, 3518.000
216.215, 3661.000
217.598, 3676.000
218.981, 3494.000
220.363, 3236.000
221.745, 2934.000
223.127, 2447.000
224.508, 2086.000
225.889, 1775.000
227.270, 1464.000
228.651, 1269.000
230.032, 1152.000
231.412, 1000.000
232.792, 840.000
234.171, 900.000
235.551, 764.000
236.930, 803.000
238.309, 827.000
239.688, 683.000
241.066, 682.000
242.445, 683.000
243.823, 691.000
245.200, 639.000
246.578, 670.000
247.955, 774.000
249.332, 709.000
250.709, 744.000
252.085, 834.000
253.462, 808.000
254.838, 936.000
256.213, 885.000
257.589, 1013.000
258.964, 1071.000
260.339, 1187.000
261.714, 1280.413
263.088, 1312.000
264.462, 1484.000
265.836, 1574.000
267.210, 1700.000
268.584, 1736.000
269.957, 1896.000
271.330, 2022.000
272.703, 2221.000
274.075, 2320.000
275.447, 2471.000
276.819, 2597.000
278.191, 2742.000
279.563, 2768.000
280.934, 2825.000
282.305, 2809.000
283.676, 2768.000
285.046, 2717.000
286.416, 2636.000
287.786, 2523.000
289.156, 2315.000
290.526, 2196.000
291.895, 2059.000
293.264, 1788.000
294.633, 1672.000
296.001, 1548.000
297.370, 1416.000
298.738, 1176.000
300.105, 1145.000
301.473, 941.000
302.840, 903.000
304.207, 839.000
305.574, 803.000
306.940, 684.000
308.307, 585.000
309.673, 540.000
311.039, 436.000
312.404, 420.000
313.769, 377.000
315.135, 342.000
316.499, 325.487
317.864, 318.000
319.228, 287.000
320.592, 261.000
321.956, 241.000
323.320, 214.394
324.683, 161.000
326.046, 171.000
327.409, 148.000
328.771, 131.000
330.134, 200.000
331.496, 118.000
332.858, 184.000
334.219, 72.000
335.581, 168.000
336.942, 148.000
338.303, 57.000
339.663, 91.000
341.024, 90.000
342.384, 164.000
343.744, 58.000
345.103, 29.000
346.463, 124.000
347.822, 82.000
349.181, 182.000
350.539, 65.000
351.898, 203.000
353.256, 123.000
354.614, 172.000
355.972, 94.000
357.329, 142.000
358.686, 237.000
360.043, 88.000
361.400, 203.000
362.756, 208.000
364.112, 218.000
365.468, 298.000
366.824, 286.000
368.180, 289.000
369.535, 369.000
370.890, 372.000
372.245, 648.871
373.599, 567.000
374.953, 581.506
376.307, 492.000
377.661, 475.000
379.015, 624.000
380.368, 618.000
381.721, 679.000
383.074, 652.000
384.426, 779.000
385.778, 693.000
387.131, 813.000
388.482, 880.000
389.834, 864.000
391.185, 859.000
392.536, 1020.000
393.887, 975.701
395.238, 1002.619
396.588, 993.000
397.938, 974.000
399.288, 949.000
400.638, 918.000
401.987, 891.000
403.336, 794.000
404.685, 805.000
406.034, 631.000
407.382, 660.000
408.730, 560.000
410.078, 537.000
411.426, 526.000
412.773, 421.000
414.120, 411.000
415.467, 342.000
416.814, 300.000
418.161, 277.000
419.507, 266.000
420.853, 256.000
422.198, 203.000
423.544, 141.000
424.889, 128.000
426.234, 130.000
427.579, 182.000
428.924, 111.000
430.268, 117.000
431.612, 101.000
432.956, 13.000
434.299, 101.000
435.643, 78.000
436.986, 64.000
438.328, 16.000
439.671, 25.480
441.013, 0.000
442.356, 34.000
443.697, 58.000
445.039, 70.000
446.380, 76.462
447.722, 70.289
449.062, 83.000
450.403, 51.000
451.744, 81.000
453.084, 96.000
454.424, 10.000
455.763, 69.000
457.103, 34.000
458.442, 85.000
459.781, 103.000
461.120, 68.000
462.458, 138.000
463.797, 89.000
465.135, 137.000
466.472, 145.000
467.810, 74.000
469.147, 216.000
470.484, 154.000
471.821, 140.000
473.158, 165.000
474.494, 130.000
475.830, 233.000
477.166, 204.000
478.502, 268.000
479.837, 269.247
481.172, 388.000
482.507, 280.000
483.842, 184.000
485.176, 224.000
486.510, 246.000
487.844, 219.000
489.178, 250.000
490.511, 257.000
491.845, 339.000
493.178, 260.000
494.510, 286.000
495.843, 267.000
497.175, 234.661
498.507, 279.000
499.839, 213.000
501.171, 164.000
502.502, 196.000
503.833, 168.000
505.164, 241.000
506.495, 195.000
507.825, 245.000
509.155, 148.000
510.485, 220.000
511.815, 266.000
513.144, 160.000
514.473, 161.000
515.802, 186.000
517.131, 188.000
518.459, 258.000
519.788, 136.000
521.116, 219.000
522.443, 126.000
523.771, 154.000
525.098, 226.000
526.425, 205.000
527.752, 229.000
529.078, 169.000
530.405, 257.000
531.731, 369.000
533.057, 297.000
534.382, 302.000
535.708, 157.000
537.033, 194.000
538.358, 238.000
539.683, 188.000
541.007, 266.000
542.331, 234.000
543.655, 336.000
544.979, 255.000
546.302, 150.000
547.626, 291.000
548.949, 224.000
550.271, 297.000
551.594, 269.000
552.916, 284.000
554.238, 356.000
555.560, 320.000
556.882, 377.000
558.203, 406.000
559.524, 319.000
560.845, 339.000
562.166, 379.000
563.486, 378.000
564.806, 443.000
566.126, 399.000
567.446, 467.000
568.766, 405.000
570.085, 518.000
571.404, 457.000
572.723, 522.000
574.041, 542.000
575.359, 466.000
576.678, 588.000
577.995, 558.000
579.313, 578.000
580.630, 568.000
581.947, 599.864
583.264, 640.000
584.581, 662.000
585.897, 675.525
587.214, 670.778
588.530, 650.000
589.845, 716.000
591.161, 694.000
592.476, 756.000
593.791, 802.000
595.106, 703.000
596.420, 701.000
597.735, 715.000
599.049, 804.000
600.363, 648.000
601.676, 669.000
602.990, 754.000
604.303, 650.000
605.616, 749.000
606.928, 601.000
608.241, 645.000
609.553, 638.000
610.865, 568.000
612.177, 665.000
613.488, 493.000
614.800, 492.000
616.111, 597.000
617.422, 483.000
618.732, 586.000
620.042, 539.000
621.353, 445.000
622.662, 494.000
623.972, 516.000
625.282, 475.856
626.591, 505.085
627.900, 434.000
629.208, 511.000
630.517, 467.000
631.825, 487.000
633.133, 428.000
634.441, 440.000
635.749, 574.000
637.056, 399.000
638.363, 438.000
639.670, 488.000
640.976, 396.000
642.283, 488.000
643.589, 383.000
644.895, 515.000
646.201, 394.000
647.506, 497.000
648.811, 510.000
650.116, 408.000
651.421, 496.000
652.726, 435.000
654.030, 402.000
655.334, 484.000
656.638, 394.000
657.942, 456.000
659.245, 399.000
660.548, 394.000
661.851, 460.000
663.154, 407.000
664.456, 414.000
665.758, 416.000
667.060, 438.000
668.362, 419.000
669.664, 388.000
670.965, 472.000
672.266, 379.000
673.567, 452.000
674.868, 430.000
676.168, 360.000
677.468, 418.000
678.768, 349.000
680.068, 403.000
681.367, 426.000
682.666, 273.000
683.965, 394.000
685.264, 325.000
686.563, 403.000
687.861, 388.000
689.159, 305.000
690.457, 421.000
691.755, 336.000
693.052, 352.000
694.349, 424.000
695.646, 318.000
696.943, 362.000
698.239, 316.000
699.536, 362.000
700.832, 396.000
702.127, 304.000
703.423, 390.000
704.718, 340.000
706.013, 412.000
707.308, 352.000
708.603, 348.000
709.897, 371.000
711.191, 304.000
712.485, 400.000
713.779, 373.000
715.073, 350.000
716.366, 390.000
717.659, 401.000
718.952, 401.000
720.244, 479.000
721.537, 333.000
722.829, 419.000
724.121, 376.000
725.412, 405.000
726.704, 422.564
727.995, 360.000
729.286, 438.000
730.577, 414.000
731.867, 414.000
733.158, 467.000
734.448, 354.000
735.738, 391.000
737.027, 374.000
738.317, 435.000
739.606, 421.000
740.895, 391.000
742.183, 489.000
743.472, 430.000
744.760, 487.000
746.048, 460.000
747.336, 291.000
748.623, 507.000
749.911, 373.000
751.198, 376.000
752.485, 435.000
753.771, 409.000
755.058, 469.000
756.344, 378.000
757.630, 464.000
758.916, 538.000
760.201, 381.000
761.487, 424.000
762.772, 473.000
764.057, 471.000
765.341, 549.000
766.626, 453.000
767.910, 554.000
769.194, 526.000
770.477, 495.000
771.761, 496.000
773.044, 423.000
774.327, 575.000
775.610, 508.000
776.893, 446.000
778.175, 575.000
779.457, 459.000
780.739, 588.000
782.021, 476.000
783.302, 503.000
784.583, 602.000
785.864, 482.000
787.145, 527.000
788.426, 571.000
789.706, 494.000
790.986, 622.000
792.266, 596.110
793.546, 647.000
794.825, 638.000
796.104, 575.000
797.383, 610.000
798.662, 484.000
799.941, 542.000
801.219, 630.000
802.497, 435.000
803.775, 656.000
805.052, 592.000
806.330, 592.000
807.607, 580.000
808.884, 587.000
810.161, 647.000
811.437, 645.000
812.714, 550.000
813.990, 636.000
815.265, 582.000
816.541, 578.000
817.816, 574.000
819.092, 526.000
820.366, 563.632
821.641, 602.000
822.916, 623.000
824.190, 640.000
825.464, 682.000
826.738, 707.000
828.011, 634.000
829.285, 674.000
830.558, 624.000
831.831, 691.000
833.104, 713.000
834.376, 629.000
835.648, 696.000
836.920, 737.000
838.192, 729.000
839.464, 732.000
840.735, 711.000
842.006, 769.000
843.277, 763.000
844.548, 775.247
845.818, 755.000
847.088, 799.000
848.358, 740.000
849.628, 758.000
850.898, 742.000
852.167, 789.000
853.436, 734.000
854.705, 779.000
855.974, 814.000
857.242, 780.000
858.511, 785.000
859.779, 826.000
861.046, 810.000
862.314, 883.000
863.581, 775.000
864.848, 797.000
866.115, 819.000
867.382, 853.000
868.649, 916.000
869.915, 831.000
871.181, 881.000
872.447, 990.000
873.712, 800.000
874.978, 972.000
876.243, 902.000
877.508, 889.000
878.772, 909.000
880.037, 892.000
881.301, 981.000
882.565, 921.000
883.829, 859.000
885.092, 945.000
886.356, 918.000
887.619, 881.000
888.882, 948.000
890.144, 912.000
891.407, 964.000
892.669, 955.000
893.931, 936.000
895.193, 993.000
896.455, 865.000
897.716, 1032.000
898.977, 984.000
900.238, 996.000
901.499, 1075.000
902.759, 978.000
904.020, 1078.000
905.280, 1035.000
906.539, 1048.000
907.799, 1137.000
909.058, 1025.000
910.318, 1091.000
911.577, 1136.000
912.835, 1125.000
914.094, 1176.000
915.352, 1205.000
916.610, 1199.000
917.868, 1178.000
919.126, 1126.000
920.383, 1191.000
921.640, 1205.000
922.897, 1142.000
924.154, 1280.000
925.410, 1240.000
926.667, 1202.000
927.923, 1275.743
929.179, 1279.000
930.434, 1346.000
931.690, 1221.000
932.945, 1267.000
934.200, 1234.000
935.455, 1188.000
936.709, 1230.935
937.964, 1230.200
939.218, 1255.000
940.472, 1313.000
941.725, 1288.000
942.979, 1358.000
944.232, 1385.000
945.485, 1254.000
946.738, 1368.000
947.991, 1442.000
949.243, 1347.000
950.495, 1473.000
951.747, 1322.000
952.999, 1468.000
954.250, 1370.000
955.502, 1435.000
956.753, 1505.000
958.003, 1484.000
959.254, 1610.000
960.504, 1428.000
961.755, 1470.000
963.005, 1626.000
964.254, 1488.000
965.504, 1559.000
966.753, 1634.000
968.002, 1557.000
969.251, 1727.000
970.500, 1670.000
971.748, 1674.000
972.997, 1642.000
974.245, 1582.000
975.492, 1769.000
976.740, 1766.000
977.987, 1819.000
979.234, 1826.000
980.481, 1847.910
981.728, 1927.000
982.975, 1891.000
984.221, 1913.000
985.467, 1943.000
986.713, 1997.000
987.958, 1997.000
989.204, 2096.000
990.449, 2006.000
991.694, 2158.000
992.939, 2104.000
994.183, 2120.000
995.428, 2182.000
996.672, 2074.000
997.916, 2221.000
999.159, 2198.000
1000.403, 2126.000
1001.646, 2195.000
1002.889, 2212.000
1004.132, 2235.000
1005.374, 2164.000
1006.617, 2128.000
1007.859, 2169.000
1009.101, 2284.000
1010.343, 2169.000
1011.584, 2204.000
1012.825, 2143.000
1014.067, 2150.000
1015.307, 2178.000
1016.548, 2176.000
1017.788, 2141.000
1019.029, 2208.000
1020.269, 2216.000
1021.508, 2336.000
1022.748, 2415.000
1023.987, 2306.000
1025.227, 2179.000
1026.466, 2329.000
1027.704, 2271.000
1028.943, 2209.000
1030.181, 2355.000
1031.419, 2382.000
1032.657, 2346.000
1033.895, 2303.000
1035.132, 2334.000
1036.369, 2445.000
1037.606, 2423.000
1038.843, 2329.000
1040.080, 2409.000
1041.316, 2350.000
1042.552, 2363.000
1043.788, 2385.000
1045.024, 2404.000
1046.259, 2427.000
1047.495, 2417.000
1048.730, 2384.000
1049.964, 2514.000
1051.199, 2350.000
1052.433, 2389.000
1053.668, 2487.000
1054.902, 2388.000
1056.135, 2478.000
1057.369, 2362.000
1058.602, 2382.000
1059.836, 2528.000
1061.068, 2423.000
1062.301, 2570.000
1063.534, 2459.000
1064.766, 2397.000
1065.998, 2438.000
1067.230, 2372.000
1068.462, 2442.000
1069.693, 2528.000
1070.924, 2415.000
1072.155, 2486.000
1073.386, 2512.000
1074.617, 2339.000
1075.847, 2558.000
1077.077, 2448.000
1078.307, 2419.000
1079.537, 2526.000
1080.766, 2339.000
1081.996, 2438.000
1083.225, 2389.000
1084.454, 2317.000
1085.682, 2545.000
1086.911, 2412.000
1088.139, 2459.000
1089.367, 2446.000
1090.595, 2374.000
1091.822, 2435.000
1093.050, 2414.000
1094.277, 2352.000
1095.504, 2340.000
1096.731, 2408.000
1097.957, 2416.000
1099.184, 2416.000
1100.410, 2309.000
1101.636, 2413.000
1102.861, 2428.000
1104.087, 2342.000
1105.312, 2494.000
1106.537, 2304.000
1107.762, 2436.000
##END=



