##NAMES=Chloritoid
##RRUFFID=R050334
##IDEAL CHEMISTRY=Fe^2+^Al_2_OSiO_4_(OH)_2_
##LOCALITY=Selçuk, Mugla Province, Turkey
##OWNER=RRUFF
##SOURCE=George Rossman
##DESCRIPTION=Dark greenish-black foliated cleavage fragments
##STATUS=The identification of this mineral is confirmed by single-crystal X-ray diffraction and chemical analysis.
##URL=rruff.info/R050334
##MEASURED CHEMISTRY=(Fe^2+^_1.84_Mg_0.12_Mn_0.04_)_Σ=2_(Al_3.95_Fe^3+^_0.05_)_Σ=4_Si_2.00_O_10_(OH)_4_ ; H not measured but estimated by difference and stoichiometry
235.479, 4834.000
236.853, 4737.000
238.227, 4771.000
239.601, 4764.000
240.974, 4777.000
242.347, 4812.000
243.720, 4835.000
245.093, 4981.000
246.465, 5020.000
247.837, 5117.000
249.209, 5187.000
250.581, 5217.000
251.953, 5251.000
253.324, 5193.000
254.695, 5179.000
256.066, 5110.000
257.436, 5105.000
258.806, 5109.000
260.177, 4960.000
261.546, 4995.000
262.916, 4757.000
264.285, 4742.000
265.654, 4681.000
267.023, 4593.000
268.392, 4684.000
269.761, 4675.000
271.129, 4650.000
272.497, 4698.000
273.864, 4796.000
275.232, 4882.000
276.599, 4956.000
277.966, 5139.000
279.333, 5337.000
280.700, 5378.000
282.066, 5450.000
283.432, 5334.000
284.798, 5221.000
286.164, 5054.000
287.529, 5045.000
288.894, 4843.000
290.259, 4865.000
291.624, 4890.000
292.989, 4789.000
294.353, 4832.000
295.717, 4799.000
297.081, 4877.000
298.444, 4924.000
299.808, 4926.000
301.171, 4924.000
302.534, 4942.000
303.896, 4901.000
305.259, 4814.000
306.621, 4793.000
307.983, 4713.000
309.345, 4634.000
310.706, 4573.000
312.067, 4489.000
313.428, 4457.000
314.789, 4419.000
316.150, 4405.000
317.510, 4365.000
318.870, 4305.000
320.230, 4368.000
321.590, 4349.000
322.949, 4386.000
324.309, 4458.000
325.667, 4476.000
327.026, 4508.000
328.385, 4579.000
329.743, 4744.000
331.101, 4695.000
332.459, 4724.000
333.816, 4769.000
335.174, 4704.000
336.531, 4580.000
337.888, 4510.000
339.244, 4444.000
340.601, 4435.000
341.957, 4498.000
343.313, 4554.000
344.669, 4470.000
346.024, 4603.000
347.380, 4463.000
348.735, 4390.000
350.090, 4320.000
351.444, 4275.000
352.799, 4277.732
354.153, 4198.000
355.507, 4336.000
356.860, 4324.000
358.214, 4380.000
359.567, 4507.000
360.920, 4411.000
362.273, 4472.000
363.625, 4462.000
364.978, 4516.000
366.330, 4570.000
367.682, 4523.000
369.033, 4465.000
370.385, 4401.000
371.736, 4406.000
373.087, 4420.000
374.437, 4361.000
375.788, 4374.000
377.138, 4370.000
378.488, 4411.000
379.838, 4443.000
381.188, 4411.000
382.537, 4536.000
383.886, 4544.000
385.235, 4581.000
386.584, 4681.000
387.932, 4712.000
389.280, 4642.000
390.628, 4630.000
391.976, 4617.247
393.323, 4632.000
394.671, 4592.000
396.018, 4667.000
397.365, 4684.000
398.711, 4715.000
400.058, 4712.000
401.404, 4642.000
402.750, 4666.000
404.096, 4697.000
405.441, 4753.000
406.786, 4743.000
408.131, 4775.000
409.476, 4828.000
410.821, 4921.000
412.165, 4924.000
413.509, 4947.000
414.853, 4926.000
416.197, 4929.000
417.540, 4750.000
418.883, 4758.000
420.226, 4664.000
421.569, 4668.000
422.912, 4617.000
424.254, 4646.000
425.596, 4537.000
426.938, 4475.000
428.280, 4554.000
429.621, 4416.000
430.962, 4488.000
432.303, 4374.000
433.644, 4403.000
434.984, 4398.000
436.325, 4372.000
437.665, 4405.000
439.005, 4345.000
440.344, 4401.000
441.684, 4398.000
443.023, 4359.000
444.362, 4419.000
445.700, 4337.000
447.039, 4402.000
448.377, 4391.000
449.715, 4409.000
451.053, 4353.000
452.390, 4382.000
453.728, 4395.116
455.065, 4436.000
456.402, 4431.000
457.739, 4435.000
459.075, 4405.000
460.411, 4385.000
461.747, 4418.000
463.083, 4486.000
464.419, 4474.000
465.754, 4522.000
467.089, 4481.000
468.424, 4524.000
469.759, 4529.000
471.093, 4534.000
472.427, 4619.000
473.761, 4563.000
475.095, 4604.000
476.429, 4649.000
477.762, 4628.000
479.095, 4623.000
480.428, 4623.000
481.760, 4608.000
483.093, 4681.000
484.425, 4652.000
485.757, 4656.000
487.089, 4707.000
488.420, 4807.000
489.752, 4848.000
491.083, 4974.134
492.414, 5124.000
493.744, 5247.000
495.075, 5431.000
496.405, 5626.000
497.735, 5622.000
499.065, 5813.000
500.394, 5613.000
501.723, 5467.000
503.052, 5520.000
504.381, 5408.000
505.710, 5375.000
507.038, 5323.000
508.366, 5374.000
509.694, 5314.000
511.022, 5292.000
512.350, 5259.000
513.677, 5147.000
515.004, 5016.000
516.331, 4941.220
517.658, 4955.000
518.984, 4813.000
520.310, 4777.000
521.636, 4887.000
522.962, 4827.000
524.287, 4907.000
525.613, 5049.000
526.938, 5108.000
528.263, 5287.000
529.587, 5312.000
530.912, 5169.000
532.236, 5249.000
533.560, 5081.000
534.883, 4908.000
536.207, 4818.000
537.530, 4775.000
538.853, 4689.000
540.176, 4646.000
541.499, 4717.000
542.821, 4631.000
544.143, 4715.000
545.465, 4793.000
546.787, 4993.000
548.109, 5298.000
549.430, 5507.000
550.751, 5899.000
552.072, 6063.000
553.393, 5952.000
554.713, 5577.000
556.033, 5264.000
557.353, 4940.000
558.673, 4764.000
559.993, 4654.000
561.312, 4564.000
562.631, 4454.000
563.950, 4492.000
565.269, 4455.000
566.587, 4403.000
567.905, 4464.000
569.223, 4462.000
570.541, 4478.000
571.859, 4462.000
573.176, 4467.000
574.493, 4487.000
575.810, 4513.064
577.127, 4569.800
578.443, 4626.000
579.759, 4756.000
581.075, 4885.000
582.391, 5088.000
583.707, 5354.000
585.022, 5997.000
586.337, 6876.000
587.652, 8017.000
588.967, 10360.000
590.281, 14030.000
591.596, 18620.000
592.910, 24280.000
594.223, 26540.000
595.537, 23200.000
596.850, 17630.000
598.164, 12220.000
599.477, 9311.000
600.789, 7534.000
602.102, 6509.000
603.414, 5977.000
604.726, 5474.000
606.038, 5262.000
607.350, 5076.000
608.661, 4853.000
609.972, 4759.000
611.283, 4661.000
612.594, 4489.000
613.905, 4417.000
615.215, 4403.000
616.525, 4369.000
617.835, 4208.000
619.145, 4221.000
620.454, 4174.000
621.763, 4230.000
623.072, 4172.000
624.381, 4086.000
625.690, 4150.000
626.998, 4133.000
628.306, 4144.000
629.614, 4115.000
630.922, 4099.761
632.229, 4091.000
633.537, 4050.000
634.844, 4044.000
636.151, 4017.000
637.457, 4070.000
638.764, 4057.000
640.070, 4017.000
641.376, 4044.000
642.682, 4015.000
643.987, 3969.000
645.292, 4031.000
646.598, 3977.000
647.902, 3900.000
649.207, 3960.000
650.512, 3981.000
651.816, 4004.000
653.120, 3982.000
654.424, 4007.000
655.727, 4047.000
657.031, 3973.000
658.334, 4010.000
659.637, 4030.000
660.939, 4027.000
662.242, 4034.000
663.544, 4034.000
664.846, 3987.000
666.148, 4070.000
667.450, 4049.000
668.751, 4029.000
670.052, 3974.000
671.353, 3986.473
672.654, 3937.000
673.955, 3998.000
675.255, 3949.000
676.555, 3958.000
677.855, 3949.000
679.155, 3978.000
680.454, 3987.000
681.754, 3951.000
683.053, 3929.000
684.352, 3924.000
685.650, 3926.324
686.949, 3940.000
688.247, 3955.000
689.545, 3987.000
690.843, 3994.000
692.140, 3934.000
693.437, 4042.000
694.735, 4019.000
696.031, 3938.000
697.328, 3935.000
698.625, 3952.000
699.921, 3993.000
701.217, 3949.000
702.513, 3957.000
703.808, 3974.000
705.104, 3923.000
706.399, 3969.000
707.694, 4031.000
708.989, 4009.000
710.283, 4020.000
711.577, 4041.243
712.872, 4032.000
714.166, 4066.000
715.459, 4058.000
716.753, 4075.000
718.046, 4144.000
719.339, 4146.000
720.632, 4133.000
721.924, 4246.000
723.217, 4249.000
724.509, 4327.000
725.801, 4324.000
727.093, 4382.000
728.384, 4430.000
729.676, 4534.000
730.967, 4612.000
732.258, 4617.000
733.548, 4654.000
734.839, 4648.690
736.129, 4661.000
737.419, 4603.000
738.709, 4594.000
739.999, 4556.000
741.288, 4518.000
742.577, 4537.000
743.866, 4478.000
745.155, 4468.000
746.443, 4403.000
747.732, 4271.000
749.020, 4275.000
750.308, 4185.000
751.596, 4121.000
752.883, 4212.000
754.170, 4165.000
755.457, 4121.000
756.744, 4055.000
758.031, 4051.000
759.317, 4040.000
760.604, 3973.000
761.890, 4087.000
763.175, 4032.000
764.461, 4022.000
765.746, 3984.000
767.031, 4019.000
768.316, 4001.000
769.601, 4010.000
770.886, 3926.000
772.170, 4063.000
773.454, 3953.000
774.738, 3988.000
776.022, 4035.000
777.305, 4019.000
778.588, 3994.000
779.871, 3961.000
781.154, 4005.000
782.437, 4033.000
783.719, 4028.000
785.001, 4039.000
786.283, 4037.000
787.565, 4053.000
788.847, 4001.000
790.128, 4046.000
791.409, 3996.000
792.690, 4085.000
793.971, 4050.000
795.251, 4079.000
796.532, 4069.000
797.812, 4067.000
799.092, 4120.000
800.371, 4140.000
801.651, 4172.000
802.930, 4099.000
804.209, 4139.000
805.488, 4138.000
806.766, 4128.000
808.045, 4148.000
809.323, 4166.000
810.601, 4121.000
811.879, 4225.000
813.156, 4184.000
814.434, 4150.000
815.711, 4204.000
816.988, 4200.000
818.264, 4244.000
819.541, 4294.000
820.817, 4311.000
822.093, 4302.000
823.369, 4379.000
824.645, 4384.000
825.920, 4354.000
827.195, 4513.000
828.470, 4496.000
829.745, 4603.000
831.020, 4774.000
832.294, 4760.000
833.569, 4843.000
834.842, 4913.000
836.116, 5031.000
837.390, 5136.000
838.663, 5158.000
839.936, 5165.000
841.209, 5276.000
842.482, 5244.000
843.755, 5273.000
845.027, 5227.000
846.299, 5209.000
847.571, 5227.000
848.843, 5097.000
850.114, 5065.000
851.385, 5055.000
852.656, 4985.000
853.927, 4956.000
855.198, 4881.000
856.468, 4908.000
857.738, 4884.000
859.008, 4886.000
860.278, 4940.000
861.548, 4920.000
862.817, 4998.000
864.086, 5010.000
865.355, 5039.000
866.624, 5287.000
867.893, 5356.000
869.161, 5455.000
870.429, 5632.000
871.697, 5794.000
872.965, 6086.000
874.232, 6339.000
875.500, 6846.000
876.767, 6830.000
878.034, 7107.000
879.300, 7137.000
880.567, 7223.000
881.833, 7044.000
883.099, 7105.000
884.365, 6693.000
885.631, 6487.000
886.896, 6311.000
888.161, 6121.000
889.426, 5953.000
890.691, 5935.000
891.956, 5713.000
893.220, 5501.000
894.484, 5702.000
895.748, 5398.000
897.012, 5352.000
898.276, 5395.000
899.539, 5364.000
900.802, 5378.000
902.065, 5471.000
903.328, 5422.000
904.591, 5318.000
905.853, 5479.000
907.115, 5290.000
908.377, 5288.000
909.639, 5237.000
910.900, 5189.000
912.161, 5170.000
913.423, 5089.000
914.683, 5008.000
915.944, 5037.000
917.205, 4934.000
918.465, 5042.000
919.725, 4946.000
920.985, 4930.000
922.244, 4857.000
923.504, 4812.000
924.763, 4892.000
926.022, 4870.000
927.281, 4787.000
928.540, 4864.000
929.798, 4810.000
931.056, 4851.000
932.314, 4788.000
933.572, 4860.000
934.830, 4818.000
936.087, 4769.000
937.344, 4875.000
938.601, 4833.000
939.858, 4855.000
941.115, 4908.000
942.371, 4927.000
943.627, 4929.000
944.883, 4930.000
946.139, 4971.000
947.394, 4954.000
948.650, 4980.965
949.905, 4969.000
951.160, 5003.000
952.414, 5042.000
953.669, 5029.000
954.923, 5063.000
956.177, 4973.000
957.431, 5019.000
958.685, 4974.000
959.938, 4888.000
961.192, 4904.000
962.445, 4882.000
963.698, 4833.000
964.950, 4850.000
966.203, 4763.000
967.455, 4761.979
968.707, 4764.000
969.959, 4729.000
971.211, 4678.000
972.462, 4673.000
973.713, 4711.000
974.964, 4649.000
976.215, 4584.000
977.466, 4670.000
978.716, 4511.000
979.966, 4618.000
981.217, 4546.000
982.466, 4599.000
983.716, 4574.000
984.965, 4498.000
986.215, 4567.000
987.464, 4513.000
988.712, 4504.000
989.961, 4510.000
991.209, 4509.000
992.458, 4592.000
993.706, 4519.000
994.953, 4554.000
996.201, 4807.000
997.448, 4633.209
998.695, 4782.000
999.942, 4507.000
1001.189, 4584.000
1002.436, 4622.000
1003.682, 4572.000
1004.928, 4639.000
1006.174, 4578.000
1007.420, 4611.000
1008.666, 4558.000
1009.911, 4553.000
1011.156, 4539.000
1012.401, 4575.000
1013.646, 4590.000
1014.890, 4512.000
1016.135, 4559.000
1017.379, 4533.000
1018.623, 4509.000
1019.866, 4557.000
1021.110, 4502.000
1022.353, 4526.000
1023.596, 4523.000
1024.839, 4582.000
1026.082, 4544.000
1027.325, 4561.000
1028.567, 4518.000
1029.809, 4542.000
1031.051, 4493.000
1032.293, 4570.000
1033.534, 4576.000
1034.775, 4578.000
1036.017, 4525.000
1037.257, 4522.000
1038.498, 4658.000
1039.739, 4510.000
1040.979, 4490.000
1042.219, 4604.000
1043.459, 4512.000
1044.699, 4526.000
1045.938, 4542.000
1047.177, 4530.000
1048.416, 4538.333
1049.655, 4558.000
1050.894, 4537.000
1052.133, 4529.000
1053.371, 4535.000
1054.609, 4520.799
1055.847, 4535.878
1057.084, 4513.000
1058.322, 4545.000
1059.559, 4551.000
1060.796, 4517.000
1062.033, 4619.000
1063.270, 4513.000
1064.506, 4544.000
1065.743, 4596.000
1066.979, 4519.000
1068.215, 4629.000
1069.450, 4567.000
1070.686, 4563.000
1071.921, 4656.000
1073.156, 4530.000
1074.391, 4575.000
1075.626, 4529.000
1076.860, 4505.000
1078.094, 4538.000
1079.329, 4577.000
1080.562, 4569.000
1081.796, 4567.000
1083.030, 4564.000
1084.263, 4588.072
1085.496, 4600.000
1086.729, 4627.000
1087.961, 4646.000
1089.194, 4623.776
1090.426, 4670.000
1091.658, 4618.000
1092.890, 4606.000
1094.122, 4593.000
1095.353, 4609.000
1096.585, 4558.000
1097.816, 4616.000
1099.047, 4577.000
1100.277, 4527.000
1101.508, 4612.000
1102.738, 4580.000
1103.968, 4577.000
1105.198, 4592.000
1106.428, 4595.000
1107.657, 4592.939
1108.886, 4538.000
1110.116, 4584.000
1111.344, 4572.000
1112.573, 4559.000
1113.802, 4587.000
1115.030, 4570.708
1116.258, 4558.000
1117.486, 4574.000
1118.714, 4540.000
1119.941, 4554.000
1121.168, 4566.000
1122.396, 4484.000
1123.622, 4580.000
1124.849, 4524.000
1126.076, 4558.000
1127.302, 4602.000
1128.528, 4498.000
1129.754, 4615.000
1130.980, 4534.000
1132.205, 4547.000
1133.431, 4600.000
1134.656, 4553.000
1135.881, 4567.000
1137.105, 4500.000
1138.330, 4535.000
1139.554, 4570.000
1140.778, 4559.000
1142.002, 4534.000
1143.226, 4554.000
1144.450, 4508.000
1145.673, 4525.000
1146.896, 4589.000
1148.119, 4518.000
1149.342, 4538.000
1150.564, 4488.000
1151.787, 4507.000
1153.009, 4581.000
1154.231, 4509.000
1155.453, 4489.000
1156.674, 4563.000
1157.896, 4478.000
1159.117, 4550.000
1160.338, 4539.000
1161.559, 4481.000
1162.779, 4588.000
1164.000, 4545.000
1165.220, 4513.000
1166.440, 4531.000
1167.660, 4488.000
1168.879, 4497.000
1170.099, 4496.000
1171.318, 4495.000
1172.537, 4547.000
1173.756, 4534.000
1174.974, 4550.290
1176.193, 4505.000
1177.411, 4544.000
1178.629, 4498.000
1179.847, 4454.000
1181.064, 4545.000
1182.282, 4571.000
1183.499, 4527.000
1184.716, 4512.000
1185.933, 4488.000
1187.150, 4482.000
1188.366, 4492.273
1189.582, 4499.023
1190.798, 4528.000
1192.014, 4533.000
1193.230, 4548.000
1194.446, 4550.000
1195.661, 4541.000
1196.876, 4528.000
1198.091, 4540.560
1199.306, 4589.000
1200.520, 4550.000
1201.734, 4566.000
1202.948, 4548.000
1204.162, 4554.000
1205.376, 4605.000
1206.590, 4536.000
1207.803, 4590.000
1209.016, 4602.000
1210.229, 4544.000
1211.442, 4687.000
1212.654, 4578.000
1213.867, 4654.000
1215.079, 4581.000
1216.291, 4537.000
1217.503, 4657.000
1218.714, 4577.000
1219.926, 4622.000
1221.137, 4619.000
1222.348, 4603.000
1223.559, 4611.000
1224.769, 4627.000
1225.980, 4603.000
1227.190, 4617.000
1228.400, 4611.000
1229.610, 4557.000
1230.819, 4659.000
1232.029, 4568.000
1233.238, 4688.000
1234.447, 4852.000
1235.656, 4758.360
1236.865, 4598.000
1238.073, 4708.000
1239.281, 4628.000
1240.490, 4637.000
1241.697, 4642.000
1242.905, 4698.000
1244.113, 4666.000
1245.320, 4618.000
1246.527, 4637.000
1247.734, 4668.000
1248.941, 4628.000
1250.147, 4712.000
1251.354, 4690.000
1252.560, 4687.000
1253.766, 4706.000
1254.972, 4608.000
1256.177, 4711.000
1257.382, 4679.000
1258.588, 4603.000
1259.793, 4708.000
1260.997, 4630.000
1262.202, 4661.000
1263.406, 4695.000
1264.611, 4558.000
1265.815, 4677.000
1267.019, 4734.000
1268.222, 4642.000
1269.426, 4724.000
1270.629, 4705.000
1271.832, 4634.000
1273.035, 4734.000
1274.237, 4666.000
1275.440, 4690.000
1276.642, 4741.000
1277.844, 4647.000
1279.046, 4659.000
1280.248, 4714.000
1281.450, 4710.000
1282.651, 4713.000
1283.852, 4694.000
1285.053, 4658.000
1286.254, 4748.000
1287.454, 4685.000
1288.655, 4703.000
1289.855, 4733.000
1291.055, 4668.000
1292.255, 4710.000
1293.454, 4737.000
1294.654, 4652.000
1295.853, 4774.000
1297.052, 4755.000
1298.251, 4761.000
1299.449, 4739.000
1300.648, 4703.000
1301.846, 4747.000
1303.044, 4777.000
1304.242, 4714.000
1305.440, 4770.000
1306.637, 4776.000
1307.834, 4769.000
1309.032, 4790.000
1310.228, 4791.357
1311.425, 4676.000
1312.622, 4811.000
1313.818, 4716.000
1315.014, 4723.000
1316.210, 4807.000
1317.406, 4782.000
1318.602, 4815.000
1319.797, 4804.000
1320.992, 4788.000
1322.187, 4810.052
1323.382, 4792.000
1324.577, 4811.000
1325.771, 4822.000
1326.965, 4783.000
1328.159, 4877.000
1329.353, 4897.000
1330.547, 4848.000
1331.740, 4840.000
1332.934, 4806.000
1334.127, 4839.000
1335.320, 4840.000
1336.512, 4833.522
1337.705, 4864.000
1338.897, 4853.000
1340.089, 4856.000
1341.281, 4912.000
1342.473, 4881.490
1343.665, 4808.000
1344.856, 4878.000
1346.047, 4860.000
1347.238, 4895.000
1348.429, 4890.000
1349.620, 4771.000
1350.810, 4930.000
1352.001, 4852.000
1353.191, 4876.000
1354.380, 4931.000
1355.570, 4857.000
1356.760, 4931.000
1357.949, 4963.000
1359.138, 4854.000
1360.327, 4868.000
1361.516, 4988.000
1362.704, 4906.000
1363.893, 4995.000
1365.081, 4883.000
1366.269, 4837.000
1367.457, 4972.000
1368.644, 4835.000
1369.832, 4953.000
1371.019, 4905.000
1372.206, 4802.000
1373.393, 4942.000
1374.579, 4932.000
1375.766, 4834.000
1376.952, 4979.000
1378.138, 4951.000
1379.324, 4915.000
1380.510, 5137.044
1381.695, 5030.791
1382.881, 5012.088
1384.066, 5026.000
1385.251, 4874.000
1386.436, 4946.000
1387.620, 4957.000
1388.805, 4857.000
1389.989, 5008.000
1391.173, 4987.000
1392.357, 4904.000
1393.540, 4946.000
1394.724, 4890.000
1395.907, 4984.000
1397.090, 4970.000
1398.273, 4880.000
1399.456, 5022.000
1400.638, 4967.000
1401.820, 4908.000
1403.003, 4975.000
1404.184, 4878.000
1405.366, 5013.000
1406.548, 5036.000
1407.729, 4894.000
1408.910, 4986.000
1410.091, 4987.000
1411.272, 4963.000
1412.453, 5030.000
1413.633, 4985.000
1414.814, 4931.000
1415.994, 5071.000
1417.174, 4901.000
1418.353, 4956.000
1419.533, 5066.000
1420.712, 4918.000
1421.891, 5052.000
1423.070, 5065.000
1424.249, 5252.000
1425.428, 5204.000
1426.606, 5042.000
1427.784, 4965.000
1428.962, 5071.000
1430.140, 4939.000
1431.318, 5041.000
1432.495, 5022.773
1433.672, 5008.000
1434.849, 5034.000
1436.026, 5026.000
1437.203, 5040.000
1438.380, 5080.000
1439.556, 5099.000
1440.732, 4940.000
1441.908, 5082.000
1443.084, 4995.000
1444.259, 4978.000
1445.435, 5095.000
1446.610, 4962.000
1447.785, 5058.000
1448.960, 5144.000
1450.134, 5022.000
1451.309, 5044.000
1452.483, 5095.000
1453.657, 5087.000
1454.831, 5127.000
1456.005, 5072.000
1457.179, 5070.000
1458.352, 5137.000
1459.525, 5027.000
1460.698, 5077.000
1461.871, 5171.000
1463.043, 5022.000
1464.216, 5099.000
1465.388, 5179.000
1466.560, 5019.000
1467.732, 5147.000
1468.904, 5120.000
1470.075, 5012.000
1471.247, 5193.000
1472.418, 5068.000
1473.589, 5089.000
1474.759, 5139.000
1475.930, 4978.000
1477.100, 5139.000
1478.271, 5120.000
1479.441, 5122.000
1480.610, 5314.000
1481.780, 5305.000
1482.949, 5084.000
1484.119, 5135.000
1485.288, 5173.000
1486.457, 5116.000
1487.625, 5139.000
1488.794, 5108.000
1489.962, 5097.000
1491.131, 5199.000
1492.299, 5074.000
1493.466, 5162.000
1494.634, 5141.000
1495.801, 5048.000
1496.969, 5137.000
1498.136, 5148.000
1499.303, 5097.000
1500.469, 5155.000
1501.636, 5117.000
1502.802, 5079.000
1503.968, 5238.000
1505.134, 5134.000
1506.300, 5102.000
1507.466, 5234.000
1508.631, 5114.000
1509.796, 5190.000
1510.961, 5162.000
1512.126, 5111.000
1513.291, 5244.000
1514.455, 5145.000
1515.620, 5205.000
1516.784, 5252.000
1517.948, 5113.000
1519.111, 5201.000
1520.275, 5231.000
1521.438, 5094.000
##END=



