##NAMES=Cuprite
##RRUFFID=R050384
##IDEAL CHEMISTRY=Cu^1+^_2_O
##LOCALITY=Lavender Pit, Bisbee, Warren District, Cochise County, Arizona, USA
##OWNER=RRUFF
##SOURCE=University of Arizona Mineral Museum
##DESCRIPTION=Deep red to nearly black cubes
##STATUS=The identification of this mineral has been confirmed by X-ray diffraction and chemical analysis
##URL=rruff.info/R050384
##MEASURED CHEMISTRY=Cu_2.00_O
54.266, 3038.000
55.666, 3046.000
57.065, 3364.000
58.464, 3127.000
59.863, 3179.000
61.262, 3193.000
62.661, 3179.000
64.059, 3233.000
65.458, 3375.000
66.856, 3479.000
68.253, 3647.000
69.651, 3866.000
71.048, 4126.000
72.445, 4442.000
73.842, 4600.000
75.239, 4921.688
76.635, 5332.000
78.031, 5446.000
79.427, 5698.000
80.823, 5870.000
82.218, 6563.000
83.614, 6581.950
85.009, 7090.000
86.404, 6914.000
87.798, 6921.000
89.193, 7075.000
90.587, 7656.000
91.981, 8275.000
93.375, 7984.000
94.768, 8163.000
96.161, 8064.000
97.554, 7960.000
98.947, 8234.000
100.340, 8458.000
101.732, 8457.000
103.124, 9175.000
104.516, 8617.000
105.908, 9064.000
107.300, 9859.000
108.691, 9374.000
110.082, 9008.000
111.473, 8792.000
112.864, 8531.000
114.254, 8670.000
115.644, 9015.000
117.034, 9065.000
118.424, 9204.000
119.813, 9303.000
121.203, 9053.000
122.592, 9149.000
123.981, 8896.000
125.369, 8452.000
126.758, 8332.000
128.146, 8438.000
129.534, 8756.000
130.922, 8904.000
132.309, 9142.000
133.696, 9156.000
135.083, 9394.000
136.470, 9532.000
137.857, 9968.000
139.243, 10205.000
140.630, 10472.000
142.016, 10322.000
143.401, 10265.000
144.787, 10104.000
146.172, 10137.000
147.557, 9987.000
148.942, 9795.000
150.327, 9491.000
151.711, 9328.000
153.096, 9212.000
154.480, 9233.000
155.863, 9176.000
157.247, 8933.000
158.630, 8869.000
160.013, 8787.000
161.396, 8518.000
162.779, 8664.000
164.161, 8452.000
165.544, 8226.000
166.926, 8084.000
168.308, 8046.000
169.689, 7980.000
171.070, 8130.000
172.452, 8163.000
173.833, 8326.000
175.213, 8413.000
176.594, 8608.000
177.974, 8866.000
179.354, 8975.000
180.734, 9436.000
182.114, 9672.000
183.493, 9857.000
184.872, 10243.000
186.251, 10617.000
187.630, 10752.000
189.008, 10935.000
190.387, 10997.000
191.765, 11230.000
193.143, 11384.000
194.520, 11564.000
195.898, 11945.000
197.275, 11972.000
198.652, 12285.000
200.029, 12400.000
201.405, 12732.000
202.782, 12845.000
204.158, 13044.000
205.534, 13587.000
206.909, 14371.000
208.285, 15216.000
209.660, 15778.000
211.035, 16788.000
212.410, 17419.000
213.784, 18238.000
215.159, 19680.000
216.533, 19522.000
217.907, 19658.000
219.281, 19234.000
220.654, 18269.000
222.027, 16820.000
223.400, 15204.000
224.773, 13828.000
226.146, 12424.000
227.518, 11191.000
228.891, 10322.000
230.263, 9661.000
231.634, 8997.700
233.006, 8585.000
234.377, 8167.000
235.748, 7861.000
237.119, 7558.000
238.490, 7174.000
239.860, 6976.000
241.231, 6825.000
242.601, 6494.000
243.970, 6297.000
245.340, 6182.000
246.709, 5964.316
248.079, 5839.000
249.448, 5676.000
250.816, 5629.000
252.185, 5498.000
253.553, 5604.000
254.921, 5553.000
256.289, 5368.000
257.657, 5515.000
259.024, 5494.000
260.391, 5552.000
261.758, 5133.000
263.125, 5057.000
264.492, 4958.000
265.858, 5054.000
267.224, 4937.000
268.590, 4929.000
269.956, 4988.000
271.321, 4848.000
272.687, 4886.000
274.052, 4960.000
275.416, 4923.000
276.781, 4891.000
278.146, 4932.000
279.510, 4962.000
280.874, 4899.000
282.237, 4926.000
283.601, 4941.000
284.964, 4940.000
286.327, 4987.000
287.690, 4889.000
289.053, 4968.000
290.416, 5046.000
291.778, 4964.000
293.140, 5045.000
294.502, 4996.000
295.863, 5082.000
297.225, 5115.000
298.586, 5109.000
299.947, 5101.000
301.308, 5167.000
302.668, 5196.000
304.029, 5193.005
305.389, 5036.000
306.749, 5167.000
308.108, 5148.000
309.468, 5081.000
310.827, 5148.000
312.186, 5087.000
313.545, 5073.000
314.903, 5020.000
316.262, 5030.254
317.620, 5092.000
318.978, 5038.000
320.336, 5063.000
321.693, 5022.000
323.051, 5031.000
324.408, 4938.000
325.765, 5035.000
327.121, 4889.000
328.478, 4919.000
329.834, 4842.000
331.190, 4911.000
332.546, 4802.000
333.902, 4774.000
335.257, 4764.000
336.612, 4860.000
337.967, 4834.000
339.322, 4839.000
340.677, 4764.000
342.031, 4840.000
343.385, 4841.000
344.739, 4724.000
346.093, 4805.000
347.446, 4791.000
348.799, 4785.000
350.153, 4814.000
351.505, 4809.000
352.858, 4860.000
354.210, 4824.000
355.563, 4876.000
356.915, 4953.000
358.267, 4969.000
359.618, 4893.000
360.969, 4913.000
362.321, 4972.000
363.672, 5082.000
365.022, 5016.000
366.373, 5115.000
367.723, 5081.000
369.073, 5061.000
370.423, 5138.000
371.773, 5184.000
373.122, 5161.000
374.471, 5270.000
375.821, 5326.000
377.169, 5394.000
378.518, 5379.000
379.866, 5514.000
381.215, 5499.000
382.563, 5537.000
383.910, 5615.045
385.258, 5649.000
386.605, 5718.000
387.952, 5820.000
389.299, 5841.000
390.646, 5898.000
391.992, 5953.000
393.339, 6068.000
394.685, 6172.000
396.031, 6280.000
397.376, 6294.000
398.722, 6513.000
400.067, 6540.000
401.412, 6671.000
402.757, 6629.000
404.101, 6762.000
405.446, 6886.000
406.790, 6941.000
408.134, 7012.574
409.478, 7059.629
410.821, 7057.000
412.165, 7100.000
413.508, 7062.000
414.851, 7038.000
416.193, 7010.000
417.536, 6982.000
418.878, 6843.000
420.220, 6846.000
421.562, 6908.000
422.904, 6676.000
424.245, 6709.000
425.586, 6664.000
426.927, 6554.000
428.268, 6630.000
429.609, 6471.000
430.949, 6454.000
432.289, 6348.000
433.629, 6414.000
434.969, 6344.000
436.309, 6215.000
437.648, 6388.000
438.987, 6510.000
440.326, 6150.000
441.665, 6028.000
443.003, 6025.000
444.342, 5960.000
445.680, 6056.000
447.018, 5977.000
448.355, 6042.000
449.693, 6000.577
451.030, 5864.000
452.367, 5966.000
453.704, 5873.000
455.041, 5956.000
456.377, 5943.000
457.713, 5972.000
459.049, 5902.000
460.385, 5970.000
461.721, 6008.000
463.056, 5889.000
464.391, 6080.000
465.726, 6126.000
467.061, 6009.000
468.395, 6162.000
469.730, 6137.000
471.064, 6129.000
472.398, 6209.000
473.731, 6154.000
475.065, 6309.000
476.398, 6204.000
477.731, 6305.000
479.064, 6328.000
480.397, 6383.000
481.729, 6384.000
483.062, 6391.000
484.394, 6390.000
485.725, 6352.000
487.057, 6382.000
488.389, 6342.000
489.720, 6368.000
491.051, 6297.000
492.382, 6326.000
493.712, 6272.000
495.043, 6329.000
496.373, 6295.000
497.703, 6272.880
499.032, 6239.000
500.362, 6237.000
501.691, 6272.000
503.020, 6306.000
504.349, 6332.000
505.678, 6321.599
507.007, 6309.000
508.335, 6285.000
509.663, 6265.000
510.991, 6251.000
512.319, 6236.852
513.646, 6241.722
514.973, 6238.000
516.300, 6249.000
517.627, 6243.948
518.954, 6279.000
520.280, 6248.000
521.607, 6269.000
522.933, 6293.000
524.259, 6284.000
525.584, 6318.000
526.910, 6306.817
528.235, 6228.000
529.560, 6344.000
530.885, 6287.000
532.209, 6409.000
533.534, 6332.000
534.858, 6295.000
536.182, 6340.000
537.506, 6301.000
538.829, 6303.000
540.152, 6317.000
541.476, 6436.000
542.799, 6316.000
544.121, 6446.000
545.444, 6265.000
546.766, 6378.000
548.088, 6371.000
549.410, 6478.000
550.732, 6387.000
552.053, 6467.000
553.375, 6471.000
554.696, 6411.000
556.017, 6446.000
557.337, 6430.000
558.658, 6522.000
559.978, 6513.000
561.298, 6569.000
562.618, 6528.000
563.938, 6632.000
565.257, 6524.000
566.576, 6601.000
567.895, 6699.000
569.214, 6621.000
570.533, 6676.000
571.851, 6763.000
573.170, 6770.000
574.488, 6784.000
575.805, 6858.000
577.123, 6890.000
578.440, 6851.000
579.758, 6893.000
581.075, 6890.000
582.391, 6923.304
583.708, 6950.291
585.024, 7060.000
586.341, 6986.000
587.657, 7155.000
588.972, 7136.000
590.288, 7209.000
591.603, 7182.000
592.918, 7259.000
594.233, 7246.000
595.548, 7388.000
596.863, 7366.000
598.177, 7367.000
599.491, 7405.000
600.805, 7626.000
602.119, 7542.000
603.432, 7686.000
604.746, 7746.000
606.059, 7770.000
607.372, 7922.000
608.685, 8040.000
609.997, 8128.000
611.309, 8294.000
612.621, 8490.000
613.933, 8498.000
615.245, 8752.000
616.557, 8842.000
617.868, 9119.000
619.179, 9267.000
620.490, 9364.479
621.801, 9472.000
623.111, 9443.000
624.421, 9737.000
625.731, 9579.000
627.041, 9856.000
628.351, 9638.000
629.660, 9689.000
630.970, 9601.000
632.279, 9522.000
633.588, 9632.000
634.896, 9356.000
636.205, 9534.000
637.513, 9359.000
638.821, 9404.000
640.129, 9390.000
641.437, 9313.000
642.744, 9441.000
644.051, 9182.000
645.358, 9138.000
646.665, 9057.576
647.972, 9273.000
649.278, 8898.000
650.584, 8804.000
651.890, 8843.000
653.196, 8606.000
654.502, 8607.000
655.807, 8446.000
657.113, 8424.000
658.418, 8366.000
659.722, 8226.000
661.027, 8212.000
662.331, 8181.000
663.636, 8105.000
664.940, 7987.000
666.244, 8104.000
667.547, 7981.000
668.851, 8000.000
670.154, 8075.000
671.457, 8061.000
672.760, 8076.506
674.062, 7955.000
675.365, 8024.000
676.667, 7896.000
677.969, 7774.000
679.271, 8038.000
680.572, 7784.000
681.874, 7802.000
683.175, 7816.000
684.476, 7974.000
685.777, 7913.000
687.077, 7942.000
688.378, 8017.000
689.678, 8270.000
690.978, 7978.000
692.278, 8195.000
693.577, 7866.000
694.877, 7876.000
696.176, 8005.000
697.475, 7842.000
698.774, 7894.000
700.072, 8033.000
701.371, 7917.000
702.669, 7910.000
703.967, 7978.000
705.265, 7820.000
706.562, 7978.000
707.860, 7981.000
709.157, 8031.000
710.454, 7854.000
711.751, 7969.000
713.047, 7908.000
714.344, 7945.000
715.640, 7964.000
716.936, 8054.000
718.232, 8156.000
719.527, 7988.000
720.823, 7989.000
722.118, 7963.000
723.413, 8022.000
724.708, 7971.000
726.002, 8050.000
727.297, 8009.000
728.591, 8145.000
729.885, 8112.688
731.179, 8089.000
732.472, 8092.000
733.766, 8100.000
735.059, 8071.000
736.352, 8072.000
737.645, 8078.000
738.937, 8610.000
740.230, 8384.000
741.522, 8148.000
742.814, 8532.000
744.106, 8051.000
745.397, 8194.000
746.689, 8197.000
747.980, 8139.000
749.271, 7993.000
750.562, 8248.000
751.853, 8132.000
753.143, 8276.000
754.433, 8114.000
755.723, 8257.000
757.013, 8173.000
758.303, 8244.000
759.592, 8333.000
760.881, 8116.000
762.170, 8239.000
763.459, 8110.000
764.748, 8361.000
766.036, 8314.000
767.325, 8390.000
768.613, 8375.000
769.901, 8238.000
771.188, 8382.000
772.476, 8348.000
773.763, 8348.000
775.050, 8435.000
776.337, 8382.000
777.624, 8492.000
778.910, 8554.000
780.196, 8543.340
781.482, 8592.000
782.768, 8573.000
784.054, 8598.000
785.339, 8632.000
786.625, 8687.000
787.910, 8713.000
789.195, 8675.000
790.479, 8666.000
791.764, 8751.000
793.048, 8768.000
794.332, 8704.000
795.616, 8821.000
796.900, 8819.000
798.183, 8783.000
799.467, 8770.000
800.750, 8774.000
802.033, 8892.000
803.316, 8802.000
804.598, 8801.000
805.880, 8936.000
807.163, 8850.000
808.445, 8937.000
809.726, 8857.000
811.008, 9005.000
812.289, 8914.000
813.570, 8999.000
814.851, 9021.000
816.132, 8969.000
817.413, 8983.000
818.693, 9009.000
819.973, 9048.000
821.253, 9030.000
822.533, 9109.000
823.813, 9112.000
825.092, 9100.000
826.371, 9078.000
827.650, 9229.000
828.929, 9136.000
830.208, 9201.000
831.486, 9262.000
832.764, 9206.000
834.042, 9289.000
835.320, 9177.000
836.598, 9365.000
837.875, 9335.000
839.152, 9396.000
840.429, 9397.000
841.706, 9359.000
842.983, 9420.000
844.259, 9290.000
845.536, 9336.000
846.812, 9432.000
848.088, 9403.000
849.363, 9472.000
850.639, 9313.000
851.914, 9446.000
853.189, 9455.386
854.464, 9482.000
855.739, 9572.000
857.013, 9584.000
858.288, 9619.000
859.562, 9574.000
860.836, 9519.000
862.110, 9719.000
863.383, 9743.000
864.656, 9671.000
865.930, 9888.000
867.203, 9824.000
868.475, 9820.000
869.748, 10028.000
871.020, 10169.000
872.292, 9871.000
873.564, 9962.000
874.836, 9870.000
876.108, 10088.000
877.379, 10028.000
878.650, 9928.000
879.922, 10109.000
881.192, 10092.000
882.463, 10186.000
883.733, 10119.000
885.004, 10202.000
886.274, 10164.000
887.544, 10270.000
888.813, 10231.000
890.083, 10371.000
891.352, 10394.000
892.621, 10363.000
893.890, 10422.000
895.159, 10396.000
896.427, 10586.000
897.695, 10444.000
898.964, 10386.000
900.232, 10616.000
901.499, 10593.000
902.767, 10665.000
904.034, 10702.000
905.301, 10783.000
906.568, 10792.688
907.835, 10881.000
909.102, 10839.000
910.368, 10780.000
911.634, 10850.000
912.900, 10937.000
914.166, 10955.000
915.432, 11002.469
916.697, 10975.494
917.962, 11045.000
919.227, 10966.000
920.492, 10973.000
921.757, 11144.000
923.021, 11260.000
924.285, 11188.000
925.550, 11544.000
926.813, 11672.000
928.077, 11411.000
929.341, 11483.000
930.604, 11487.000
931.867, 11441.000
933.130, 11522.000
934.393, 11559.000
935.655, 11498.000
936.918, 11678.000
938.180, 11518.000
939.442, 11859.000
940.703, 11692.000
941.965, 11640.000
943.226, 11808.000
944.488, 11875.000
945.749, 11918.000
947.009, 11974.000
948.270, 11906.000
949.530, 11991.000
950.791, 12002.000
952.051, 12046.000
953.311, 12284.000
954.570, 12149.000
955.830, 12134.000
957.089, 12295.000
958.348, 12174.000
959.607, 12441.000
960.866, 12258.000
962.124, 12382.000
963.383, 12427.000
964.641, 12493.000
965.899, 12567.000
967.156, 12548.000
968.414, 12739.000
969.671, 12699.000
970.928, 12669.000
972.185, 12752.000
973.442, 12842.000
974.699, 12875.000
975.955, 12990.000
977.211, 12970.000
978.468, 13080.000
979.723, 13027.000
980.979, 13097.000
982.234, 13184.000
983.490, 13105.000
984.745, 13405.000
986.000, 13215.000
987.254, 13342.000
988.509, 13400.000
989.763, 13373.000
991.017, 13447.917
992.271, 13660.000
993.525, 13553.000
994.779, 13602.000
996.032, 13785.000
997.285, 13751.000
998.538, 13760.000
999.791, 13976.000
1001.044, 13738.000
1002.296, 13922.047
1003.548, 13925.000
1004.800, 14062.000
1006.052, 14193.000
1007.304, 14220.000
1008.555, 14261.000
1009.807, 14272.000
1011.058, 14306.000
1012.309, 14416.000
1013.559, 14540.000
1014.810, 14494.000
1016.060, 14621.000
1017.310, 14544.000
1018.560, 14838.000
1019.810, 14707.000
1021.060, 14705.000
1022.309, 14963.000
1023.558, 14902.000
1024.807, 15083.000
1026.056, 15135.000
1027.305, 15055.000
1028.553, 15125.000
1029.801, 15221.000
1031.049, 15235.072
1032.297, 15418.000
1033.545, 15396.000
1034.793, 15465.000
1036.040, 15605.000
1037.287, 15594.000
1038.534, 15632.000
1039.781, 15697.000
1041.027, 15817.000
1042.274, 16014.000
1043.520, 15865.000
1044.766, 16056.000
1046.012, 16079.000
1047.257, 16100.000
1048.503, 16013.000
1049.748, 16258.000
1050.993, 16465.000
1052.238, 16254.000
1053.483, 16489.000
1054.727, 16608.000
1055.971, 16594.000
1057.216, 16482.000
1058.459, 16712.000
1059.703, 16726.000
1060.947, 16826.000
1062.190, 16746.000
1063.433, 16840.000
1064.676, 16992.000
1065.919, 16836.000
1067.162, 16876.000
1068.404, 17030.000
1069.646, 17197.000
1070.888, 16977.000
1072.130, 17202.000
1073.372, 17252.000
1074.613, 17082.000
1075.855, 17285.000
1077.096, 17401.000
1078.337, 17217.000
1079.578, 17434.000
1080.818, 17536.000
1082.059, 17420.000
1083.299, 17596.000
1084.539, 17426.000
1085.779, 17603.000
1087.018, 17496.000
1088.258, 17780.000
1089.497, 17771.000
1090.736, 17792.000
1091.975, 17768.000
1093.213, 17923.000
1094.452, 17837.000
1095.690, 17887.000
1096.928, 18240.000
1098.166, 18038.000
1099.404, 18112.000
1100.642, 18286.000
1101.879, 18290.000
1103.116, 18174.000
1104.353, 18369.000
1105.590, 18234.000
1106.827, 18382.000
1108.063, 18282.000
1109.299, 18530.000
1110.536, 18549.000
1111.771, 18605.000
1113.007, 18762.000
1114.243, 18789.170
1115.478, 18921.000
1116.713, 18921.000
1117.948, 18975.000
1119.183, 19008.000
1120.418, 19144.000
1121.652, 19172.000
1122.886, 19659.000
1124.120, 19858.000
1125.354, 19651.000
1126.588, 19592.000
1127.821, 19502.000
1129.055, 19539.000
1130.288, 19382.000
1131.521, 19558.000
1132.753, 19722.000
1133.986, 19866.000
1135.218, 19773.000
1136.450, 19781.000
1137.682, 20082.000
1138.914, 19730.000
1140.146, 20233.000
1141.377, 19905.000
1142.609, 20136.000
1143.840, 20227.000
1145.071, 20302.000
1146.301, 20355.000
1147.532, 20456.578
1148.762, 20486.000
1149.992, 20608.000
1151.222, 20649.000
1152.452, 20653.000
1153.682, 20780.000
1154.911, 20779.531
1156.140, 20779.000
1157.369, 20880.000
1158.598, 20868.000
1159.827, 20992.000
1161.055, 21134.000
1162.284, 21189.908
1163.512, 21307.482
1164.740, 21397.000
1165.967, 21451.000
1167.195, 21569.000
1168.422, 21571.000
1169.650, 21638.787
1170.877, 21653.467
1172.103, 21840.000
1173.330, 21867.051
1174.557, 21998.000
1175.783, 22025.000
1177.009, 22039.000
1178.235, 22132.000
1179.461, 22051.000
1180.686, 22230.000
1181.912, 22218.000
1183.137, 22308.000
1184.362, 22624.000
1185.587, 22675.000
1186.811, 22714.000
1188.036, 22656.000
1189.260, 22833.000
1190.484, 22926.000
1191.708, 22886.000
1192.932, 23186.000
1194.155, 23416.000
1195.378, 23290.000
1196.602, 23266.000
1197.825, 23395.000
1199.047, 23392.000
1200.270, 23508.000
1201.492, 23720.000
1202.715, 23682.000
1203.937, 24036.000
1205.159, 24068.787
##END=



