##NAMES=Germanite
##RRUFFID=R050439
##IDEAL CHEMISTRY=Cu^1+^_8_Cu^2+^_5_Fe^3+^_2_Ge^4+^_2_S^2-^_16_
##LOCALITY=Tsumeb mine, Tsumeb, Otavi District, Oshikoto, Namibia
##OWNER=RRUFF
##SOURCE=University of Arizona Mineral Museum
##DESCRIPTION=Black with purple hints, massive
##STATUS=The identification of this mineral has been confirmed by X-ray diffraction and chemical analysis
##URL=rruff.info/R050439
##MEASURED CHEMISTRY=(Cu_11.61_Fe^2+^_0.87_Zn_0.52_)_Σ=13_Fe_2.00_(Ge_1.71_As_0.29_)_Σ=2_S_16.00_ ; = dark-gray phase. (Cu_10.59_Zn_0.41_)_Σ=11_Fe_4.00_(Ge_1.46_As_0.54_)_Σ=2_S_16.00_ = lighter-gray phase. Lightest phase is PbS.
154.480, 5916.000
155.863, 5742.000
157.247, 5706.000
158.630, 5750.000
160.013, 5783.000
161.396, 5898.000
162.779, 5931.000
164.161, 5912.000
165.544, 5832.000
166.926, 5866.000
168.308, 5870.000
169.689, 5834.000
171.070, 5794.000
172.452, 5735.000
173.833, 5663.271
175.213, 5736.799
176.594, 5775.064
177.974, 5779.970
179.354, 5651.583
180.734, 5695.315
182.114, 5670.070
183.493, 5642.002
184.872, 5709.965
186.251, 5600.970
187.630, 5667.410
189.008, 5651.000
190.387, 5720.000
191.765, 5784.000
193.143, 5815.000
194.520, 5957.000
195.898, 5794.000
197.275, 5940.000
198.652, 5967.000
200.029, 6075.000
201.405, 6124.000
202.782, 6180.000
204.158, 6235.000
205.534, 6448.000
206.909, 6814.000
208.285, 6779.000
209.660, 7065.000
211.035, 7079.000
212.410, 6351.000
213.784, 6347.000
215.159, 6272.000
216.533, 6308.000
217.907, 6182.000
219.281, 6031.000
220.654, 5981.000
222.027, 5833.000
223.400, 5760.000
224.773, 5650.000
226.146, 5551.000
227.518, 5559.000
228.891, 5572.000
230.263, 5473.000
231.634, 5472.000
233.006, 5458.000
234.377, 5530.000
235.748, 5394.000
237.119, 5440.000
238.490, 5339.000
239.860, 5432.000
241.231, 5392.000
242.601, 5404.000
243.970, 5377.000
245.340, 5436.000
246.709, 5446.000
248.079, 5461.000
249.448, 5481.000
250.816, 5471.000
252.185, 5429.000
253.553, 5530.000
254.921, 5557.000
256.289, 5607.000
257.657, 5702.000
259.024, 5688.000
260.391, 5689.000
261.758, 5859.000
263.125, 5831.000
264.492, 5892.000
265.858, 6030.000
267.224, 5965.000
268.590, 6084.000
269.956, 5995.000
271.321, 6092.000
272.687, 6196.000
274.052, 6106.000
275.416, 6138.000
276.781, 6247.000
278.146, 6128.000
279.510, 6121.000
280.874, 6113.000
282.237, 6011.000
283.601, 6159.000
284.964, 6081.000
286.327, 5899.000
287.690, 6006.000
289.053, 5860.000
290.416, 5830.000
291.778, 5801.000
293.140, 5724.000
294.502, 5711.000
295.863, 5667.000
297.225, 5611.000
298.586, 5559.000
299.947, 5538.000
301.308, 5408.000
302.668, 5435.000
304.029, 5367.000
305.389, 5380.000
306.749, 5437.000
308.108, 5281.000
309.468, 5379.000
310.827, 5335.000
312.186, 5295.000
313.545, 5277.000
314.903, 5246.657
316.262, 5234.000
317.620, 5235.000
318.978, 5223.000
320.336, 5277.000
321.693, 5307.000
323.051, 5226.000
324.408, 5296.000
325.765, 5244.000
327.121, 5338.000
328.478, 5243.000
329.834, 5320.000
331.190, 5312.000
332.546, 5366.000
333.902, 5249.000
335.257, 5313.000
336.612, 5388.000
337.967, 5535.000
339.322, 5569.000
340.677, 5616.697
342.031, 5636.000
343.385, 5656.000
344.739, 5689.000
346.093, 5720.000
347.446, 5734.000
348.799, 5763.000
350.153, 5736.000
351.505, 5764.000
352.858, 5705.000
354.210, 5594.000
355.563, 5575.000
356.915, 5483.000
358.267, 5429.000
359.618, 5357.000
360.969, 5261.000
362.321, 5298.000
363.672, 5271.000
365.022, 5326.000
366.373, 5271.000
367.723, 5193.000
369.073, 5347.000
370.423, 5256.000
371.773, 5287.708
373.122, 5312.000
374.471, 5268.000
375.821, 5241.000
377.169, 5174.000
378.518, 5309.000
379.866, 5140.000
381.215, 5140.000
382.563, 5235.000
383.910, 5153.000
385.258, 5149.000
386.605, 5181.000
387.952, 5182.000
389.299, 5148.349
390.646, 5137.915
391.992, 5145.000
393.339, 5049.000
394.685, 5213.000
396.031, 5145.000
397.376, 5175.000
398.722, 5112.000
400.067, 5105.000
401.412, 5108.000
402.757, 5120.000
404.101, 5124.000
405.446, 5162.000
406.790, 5108.000
408.134, 5158.000
409.478, 5167.938
410.821, 5217.000
412.165, 5211.000
413.508, 5106.000
414.851, 5098.000
416.193, 4988.000
417.536, 4954.000
418.878, 4949.000
420.220, 4896.830
421.562, 4883.000
422.904, 4862.000
424.245, 4893.000
425.586, 4884.000
426.927, 4862.000
428.268, 4952.000
429.609, 4873.000
430.949, 4800.000
432.289, 4882.000
433.629, 4985.000
434.969, 4937.000
436.309, 4900.000
437.648, 4849.000
438.987, 4816.258
440.326, 4780.985
441.665, 4790.000
443.003, 4732.000
444.342, 4805.000
445.680, 4818.000
447.018, 4805.000
448.355, 4809.000
449.693, 4755.000
451.030, 4734.000
452.367, 4748.000
453.704, 4759.000
455.041, 4719.000
456.377, 4793.000
457.713, 4721.000
459.049, 4719.000
460.385, 4764.000
461.721, 4712.000
463.056, 4725.874
464.391, 4810.000
465.726, 4707.000
467.061, 4765.000
468.395, 4765.000
469.730, 4719.000
471.064, 4770.000
472.398, 4740.000
473.731, 4752.710
475.065, 4729.000
476.398, 4768.000
477.731, 4771.000
479.064, 4767.000
480.397, 4745.000
481.729, 4787.000
483.062, 4838.000
484.394, 4752.000
485.725, 4705.379
487.057, 4762.534
488.389, 4794.498
489.720, 4802.625
491.051, 4715.521
492.382, 4751.389
493.712, 4737.975
495.043, 4722.541
496.373, 4775.716
497.703, 4702.464
499.032, 4754.551
500.362, 4756.605
501.691, 4781.559
503.020, 4756.926
504.349, 4747.609
505.678, 4787.894
507.007, 4800.714
508.335, 4770.374
509.663, 4796.783
510.991, 4721.799
512.319, 4735.789
513.646, 4788.167
514.973, 4760.321
516.300, 4787.637
517.627, 4793.944
518.954, 4704.774
520.280, 4781.648
521.607, 4786.714
522.933, 4741.000
524.259, 4771.000
525.584, 4787.938
526.910, 4772.219
528.235, 4763.000
529.560, 4752.000
530.885, 4700.000
532.209, 4683.000
533.534, 4678.655
534.858, 4720.938
536.182, 4721.000
537.506, 4773.000
538.829, 4784.638
540.152, 4743.146
541.476, 4790.000
542.799, 4737.000
544.121, 4667.000
545.444, 4701.000
546.766, 4681.000
548.088, 4700.000
549.410, 4704.063
550.732, 4736.000
552.053, 4714.000
553.375, 4718.000
554.696, 4729.119
556.017, 4724.563
557.337, 4790.000
558.658, 4711.000
559.978, 4765.000
561.298, 4709.000
562.618, 4752.000
563.938, 4673.000
565.257, 4794.000
566.576, 4784.000
567.895, 4786.000
569.214, 4855.000
570.533, 4756.000
571.851, 4782.000
573.170, 4852.000
574.488, 4820.000
575.805, 4793.000
577.123, 4853.000
578.440, 4874.000
579.758, 4818.000
581.075, 4840.000
582.391, 4835.000
583.708, 4834.047
585.024, 4840.444
586.341, 4872.000
587.657, 4846.000
588.972, 4891.000
590.288, 4908.000
591.603, 4881.000
592.918, 4838.000
594.233, 4851.000
595.548, 4791.000
596.863, 4831.000
598.177, 4780.000
599.491, 4841.000
600.805, 4766.000
602.119, 4762.000
603.432, 4789.000
604.746, 4718.000
606.059, 4815.000
607.372, 4787.000
608.685, 4750.000
609.997, 4815.000
611.309, 4718.000
612.621, 4751.000
613.933, 4758.000
615.245, 4736.000
616.557, 4784.000
617.868, 4726.000
619.179, 4765.000
620.490, 4782.000
621.801, 4732.000
623.111, 4745.000
624.421, 4724.000
625.731, 4686.000
627.041, 4667.000
628.351, 4742.000
629.660, 4678.000
630.970, 4720.000
632.279, 4685.000
633.588, 4695.000
634.896, 4754.000
636.205, 4709.171
637.513, 4718.395
638.821, 4687.000
640.129, 4689.000
641.437, 4712.000
642.744, 4720.000
644.051, 4715.284
645.358, 4716.000
646.665, 4720.000
647.972, 4672.000
649.278, 4710.000
650.584, 4736.000
651.890, 4669.000
653.196, 4696.000
654.502, 4697.000
655.807, 4706.000
657.113, 4708.482
658.418, 4709.000
659.722, 4703.000
661.027, 4670.000
662.331, 4666.000
663.636, 4688.000
664.940, 4623.000
666.244, 4606.000
667.547, 4627.000
668.851, 4621.000
670.154, 4639.000
671.457, 4649.000
672.760, 4618.000
674.062, 4626.000
675.365, 4566.000
676.667, 4646.000
677.969, 4622.000
679.271, 4562.000
680.572, 4619.000
681.874, 4574.000
683.175, 4564.000
684.476, 4597.000
685.777, 4662.000
687.077, 4564.000
688.378, 4463.000
689.678, 4635.000
690.978, 4619.000
692.278, 4570.000
693.577, 4476.000
694.877, 4588.000
696.176, 4626.000
697.475, 4544.000
698.774, 4520.000
700.072, 4571.000
701.371, 4575.000
702.669, 4633.000
703.967, 4570.000
705.265, 4544.000
706.562, 4544.000
707.860, 4544.000
709.157, 4522.000
710.454, 4516.000
711.751, 4509.000
713.047, 4606.000
714.344, 4624.459
715.640, 4613.132
716.936, 4625.765
718.232, 4553.000
719.527, 4576.000
720.823, 4504.000
722.118, 4477.000
723.413, 4496.000
724.708, 4471.000
726.002, 4472.000
727.297, 4516.000
728.591, 4483.000
729.885, 4558.000
731.179, 4452.000
732.472, 4549.000
733.766, 4481.000
735.059, 4447.000
736.352, 4507.000
737.645, 4517.000
738.937, 4506.000
740.230, 4527.000
741.522, 4462.000
742.814, 4469.000
744.106, 4486.000
745.397, 4421.958
746.689, 4502.851
747.980, 4548.562
749.271, 4560.982
750.562, 4440.401
751.853, 4491.563
753.143, 4473.898
754.433, 4453.411
755.723, 4528.745
757.013, 4427.508
758.303, 4501.323
759.592, 4505.259
760.881, 4493.000
762.170, 4511.000
763.459, 4500.000
764.748, 4463.000
766.036, 4451.000
767.325, 4530.000
768.613, 4451.000
769.901, 4505.000
771.188, 4488.000
772.476, 4426.000
773.763, 4513.000
775.050, 4473.000
776.337, 4470.000
777.624, 4420.000
778.910, 4488.000
780.196, 4493.000
781.482, 4451.000
782.768, 4457.000
784.054, 4416.000
785.339, 4464.000
786.625, 4504.000
787.910, 4467.000
789.195, 4437.000
790.479, 4528.000
791.764, 4462.000
793.048, 4473.000
794.332, 4480.000
795.616, 4431.000
796.900, 4459.000
798.183, 4422.000
799.467, 4449.000
800.750, 4398.000
802.033, 4461.000
803.316, 4362.000
804.598, 4500.000
805.880, 4423.000
807.163, 4481.000
808.445, 4422.000
809.726, 4482.000
811.008, 4437.000
812.289, 4459.000
813.570, 4470.000
814.851, 4443.000
816.132, 4453.000
817.413, 4452.000
818.693, 4430.000
819.973, 4470.000
821.253, 4512.000
822.533, 4451.000
823.813, 4511.000
825.092, 4445.000
826.371, 4496.000
827.650, 4487.000
828.929, 4488.000
830.208, 4516.000
831.486, 4459.000
832.764, 4482.000
834.042, 4520.000
835.320, 4481.000
836.598, 4470.108
837.875, 4478.171
839.152, 4481.634
840.429, 4480.743
841.706, 4462.459
842.983, 4466.635
844.259, 4461.812
845.536, 4456.618
846.812, 4459.000
848.088, 4467.000
849.363, 4482.000
850.639, 4470.000
851.914, 4493.197
853.189, 4473.000
854.464, 4514.000
855.739, 4531.000
857.013, 4515.000
858.288, 4472.000
859.562, 4433.000
860.836, 4503.000
862.110, 4514.000
863.383, 4498.000
864.656, 4403.000
865.930, 4435.000
867.203, 4459.000
868.475, 4427.000
869.748, 4524.000
871.020, 4484.000
872.292, 4507.807
873.564, 4509.669
874.836, 4515.000
876.108, 4490.000
877.379, 4477.000
878.650, 4489.000
879.922, 4506.000
881.192, 4488.938
882.463, 4468.000
883.733, 4465.000
885.004, 4460.174
886.274, 4455.991
887.544, 4458.000
888.813, 4457.000
890.083, 4440.000
891.352, 4437.000
892.621, 4459.000
893.890, 4489.000
895.159, 4490.000
896.427, 4506.000
897.695, 4426.000
898.964, 4553.000
900.232, 4455.000
901.499, 4458.000
902.767, 4481.000
904.034, 4481.000
905.301, 4472.000
906.568, 4528.000
907.835, 4524.000
909.102, 4510.000
910.368, 4561.000
911.634, 4559.000
912.900, 4557.328
914.166, 4472.000
915.432, 4524.000
916.697, 4519.000
917.962, 4458.000
919.227, 4563.000
920.492, 4519.000
921.757, 4538.000
923.021, 4497.000
924.285, 4522.000
925.550, 4506.000
926.813, 4592.000
928.077, 4518.000
929.341, 4548.000
930.604, 4525.000
931.867, 4596.000
933.130, 4490.000
934.393, 4597.000
935.655, 4559.000
936.918, 4499.000
938.180, 4566.000
939.442, 4515.000
940.703, 4520.000
941.965, 4555.000
943.226, 4522.000
944.488, 4570.000
945.749, 4573.812
947.009, 4495.000
948.270, 4610.000
949.530, 4590.000
950.791, 4615.000
952.051, 4556.000
953.311, 4550.410
954.570, 4562.697
955.830, 4570.646
957.089, 4574.486
958.348, 4561.920
959.607, 4570.540
960.866, 4570.669
962.124, 4575.000
963.383, 4575.116
964.641, 4580.000
965.899, 4575.000
967.156, 4554.000
968.414, 4557.000
969.671, 4548.000
970.928, 4592.000
972.185, 4555.000
973.442, 4589.000
974.699, 4614.000
975.955, 4594.000
977.211, 4610.000
978.468, 4602.000
979.723, 4635.000
980.979, 4676.000
982.234, 4582.000
983.490, 4632.000
984.745, 4584.000
986.000, 4648.000
987.254, 4601.000
988.509, 4538.000
989.763, 4692.000
991.017, 4623.000
992.271, 4701.000
993.525, 4574.000
994.779, 4658.000
996.032, 4639.000
997.285, 4662.000
998.538, 4645.000
999.791, 4668.000
1001.044, 4711.000
1002.296, 4635.000
1003.548, 4658.000
1004.800, 4661.000
1006.052, 4700.000
1007.304, 4691.000
1008.555, 4660.000
1009.807, 4647.000
1011.058, 4703.000
1012.309, 4647.000
1013.559, 4687.000
1014.810, 4687.000
1016.060, 4681.000
1017.310, 4675.742
1018.560, 4689.733
1019.810, 4677.513
1021.060, 4712.000
1022.309, 4674.000
1023.558, 4665.000
1024.807, 4680.000
1026.056, 4662.000
1027.305, 4661.000
1028.553, 4625.000
1029.801, 4772.000
1031.049, 4724.000
1032.297, 4795.000
1033.545, 4759.025
1034.793, 4741.000
1036.040, 4673.000
1037.287, 4711.000
1038.534, 4729.000
1039.781, 4678.000
1041.027, 4716.000
1042.274, 4664.000
1043.520, 4744.000
1044.766, 4717.000
1046.012, 4708.000
1047.257, 4780.000
1048.503, 4717.000
1049.748, 4748.000
1050.993, 4694.079
1052.238, 4759.726
1053.483, 4796.349
1054.727, 4805.507
1055.971, 4704.943
1057.216, 4746.063
1058.459, 4730.403
1059.703, 4712.415
1060.947, 4773.477
1062.190, 4688.872
1063.433, 4748.681
1064.676, 4750.842
1065.919, 4779.388
1067.162, 4739.000
1068.404, 4759.743
1069.646, 4777.371
1070.888, 4768.000
1072.130, 4806.000
1073.372, 4754.987
1074.613, 4744.000
1075.855, 4753.000
1077.096, 4701.000
1078.337, 4686.000
1079.578, 4810.000
1080.818, 4743.000
1082.059, 4802.000
1083.299, 4791.000
1084.539, 4864.000
1085.779, 4820.069
1087.018, 4770.000
1088.258, 4769.000
1089.497, 4706.000
1090.736, 4742.000
1091.975, 4765.000
1093.213, 4762.000
1094.452, 4758.017
1095.690, 4708.000
1096.928, 4711.000
1098.166, 4722.000
1099.404, 4692.000
1100.642, 4711.000
1101.879, 4665.756
1103.116, 4718.978
1104.353, 4748.297
1105.590, 4755.000
1106.827, 4671.345
1108.063, 4704.369
1109.299, 4690.634
1110.536, 4674.980
1111.771, 4724.428
1113.007, 4653.916
1114.243, 4702.330
1115.478, 4703.272
1116.713, 4725.941
1117.948, 4701.562
1119.183, 4691.715
1120.418, 4728.932
1121.652, 4740.089
1122.886, 4710.295
1124.120, 4734.347
1125.354, 4662.194
1126.588, 4674.461
1127.821, 4723.154
1129.055, 4695.726
1130.288, 4720.639
1131.521, 4725.618
1132.753, 4640.006
1133.986, 4711.941
1135.218, 4715.743
1136.450, 4649.586
1137.682, 4670.000
1138.914, 4673.000
1140.146, 4688.000
1141.377, 4678.000
1142.609, 4652.000
1143.840, 4629.000
1145.071, 4672.000
1146.301, 4715.000
1147.532, 4684.000
1148.762, 4610.000
1149.992, 4661.000
1151.222, 4636.000
1152.452, 4649.000
1153.682, 4657.000
1154.911, 4670.000
1156.140, 4652.000
1157.369, 4656.000
1158.598, 4679.000
1159.827, 4690.000
1161.055, 4622.000
1162.284, 4645.000
1163.512, 4716.000
1164.740, 4655.000
1165.967, 4694.000
1167.195, 4699.000
1168.422, 4722.000
1169.650, 4686.000
1170.877, 4703.000
1172.103, 4684.000
1173.330, 4705.000
1174.557, 4655.000
1175.783, 4664.000
1177.009, 4757.000
1178.235, 4706.000
1179.461, 4738.000
1180.686, 4683.000
1181.912, 4662.000
1183.137, 4706.000
1184.362, 4737.000
1185.587, 4730.000
1186.811, 4748.892
1188.036, 4706.000
1189.260, 4741.000
1190.484, 4721.000
1191.708, 4703.000
1192.932, 4746.000
1194.155, 4700.000
1195.378, 4691.000
1196.602, 4823.000
1197.825, 4748.540
1199.047, 4826.000
1200.270, 4735.000
1201.492, 4689.000
1202.715, 4729.000
1203.937, 4655.729
1205.159, 4753.026
1206.380, 4808.916
1207.602, 4825.630
1208.823, 4685.818
1210.044, 4748.124
1211.265, 4729.430
1212.486, 4707.415
1213.707, 4798.168
1214.927, 4681.120
1216.147, 4770.082
1217.367, 4776.809
1218.587, 4821.173
1219.807, 4784.037
1221.027, 4772.074
1222.246, 4841.634
1223.465, 4866.054
1224.684, 4819.534
1225.903, 4866.288
1227.121, 4746.388
1228.340, 4772.730
1229.558, 4862.165
1230.776, 4819.741
1231.994, 4867.983
1233.212, 4881.694
1234.429, 4738.475
1235.646, 4868.169
1236.864, 4879.840
1238.081, 4770.322
1239.297, 4890.663
1240.514, 4797.851
1241.730, 4781.120
1242.947, 4821.649
1244.163, 4802.487
1245.378, 4877.430
1246.594, 4861.715
1247.810, 4837.900
1249.025, 4849.431
1250.240, 4828.366
1251.455, 4857.990
1252.670, 4828.247
1253.885, 4861.602
1255.099, 4909.256
1256.313, 4847.400
1257.527, 4901.481
1258.741, 4775.771
1259.955, 4800.500
1261.168, 4809.025
1262.382, 4913.710
1263.595, 4788.875
1264.808, 4809.420
1266.021, 4891.867
1267.233, 4887.698
1268.446, 4919.745
1269.658, 4844.581
1270.870, 4870.131
1272.082, 4867.921
1273.294, 4961.638
1274.505, 4979.623
1275.716, 4906.276
1276.928, 4833.319
1278.139, 4933.938
1279.349, 4870.035
1280.560, 4894.892
1281.770, 4828.078
1282.981, 4840.415
1284.191, 4851.494
1285.401, 4903.146
1286.610, 4897.599
1287.820, 4919.979
1289.029, 4915.951
1290.239, 4939.095
1291.448, 4959.214
1292.656, 4972.885
1293.865, 4957.008
1295.073, 4996.363
1296.282, 4917.943
1297.490, 4884.211
1298.698, 4882.247
1299.906, 5030.213
1301.113, 5038.819
1302.320, 4880.849
1303.528, 5022.208
1304.735, 4979.413
1305.942, 4991.342
1307.148, 4983.304
1308.355, 4981.177
1309.561, 4991.411
1310.767, 4925.635
1311.973, 5027.952
1313.179, 4992.937
1314.384, 5051.237
1315.590, 4939.475
1316.795, 4928.657
1318.000, 4944.634
1319.205, 4970.384
1320.410, 4918.052
1321.614, 4940.667
1322.819, 4937.636
1324.023, 4931.467
1325.227, 4938.954
1326.431, 4930.212
1327.634, 4911.500
1328.838, 5018.337
1330.041, 4929.811
1331.244, 5025.425
1332.447, 5062.019
1333.650, 5018.819
1334.852, 5018.018
1336.055, 4936.779
1337.257, 4978.895
1338.459, 4978.585
1339.661, 5048.178
1340.862, 4967.258
1342.064, 5059.608
1343.265, 4982.726
1344.466, 5082.089
1345.667, 5001.628
1346.868, 5081.356
1348.068, 4969.874
1349.269, 4996.789
1350.469, 5034.671
1351.669, 5107.985
1352.869, 5045.079
1354.069, 5126.797
1355.268, 5081.594
1356.468, 5119.005
1357.667, 5110.604
1358.866, 5044.868
1360.065, 5140.844
1361.263, 5089.329
1362.462, 5137.405
1363.660, 5024.174
1364.858, 5107.032
1366.056, 5147.675
1367.254, 5179.622
1368.451, 5174.989
1369.649, 5154.059
1370.846, 5158.703
1372.043, 5120.660
1373.240, 5020.284
1374.436, 5049.242
1375.633, 5117.327
1376.829, 5166.015
1378.025, 5083.395
1379.221, 5142.085
1380.417, 5137.152
1381.613, 5192.428
1382.808, 5132.286
1384.003, 5209.550
1385.199, 5102.070
1386.393, 5193.286
1387.588, 5230.591
1388.783, 5064.957
1389.977, 5232.611
1391.171, 5099.337
1392.365, 5143.462
1393.559, 5176.393
1394.753, 5122.233
1395.946, 5237.343
1397.140, 5082.274
1398.333, 5117.873
1399.526, 5224.185
1400.719, 5159.897
1401.911, 5262.830
1403.104, 5197.729
1404.296, 5097.326
1405.488, 5244.780
1406.680, 5137.223
1407.872, 5197.113
1409.063, 5117.804
1410.255, 5120.004
1411.446, 5201.903
1412.637, 5139.359
1413.828, 5204.775
1415.018, 5264.908
1416.209, 5175.037
1417.399, 5197.866
1418.589, 5178.096
1419.779, 5252.119
1420.969, 5304.335
1422.159, 5165.104
1423.348, 5265.189
1424.537, 5199.518
1425.726, 5310.528
1426.915, 5144.793
1428.104, 5150.247
1429.293, 5304.953
1430.481, 5251.360
1431.669, 5328.971
1432.857, 5162.954
1434.045, 5167.035
1435.233, 5305.771
1436.420, 5181.594
1437.608, 5341.769
1438.795, 5221.362
1439.982, 5209.095
1441.169, 5319.939
1442.355, 5247.466
1443.542, 5333.564
1444.728, 5291.722
1445.914, 5361.089
1447.100, 5321.842
1448.286, 5220.701
1449.472, 5356.710
1450.657, 5313.670
1451.842, 5200.926
1453.027, 5291.583
1454.212, 5351.661
1455.397, 5336.831
1456.581, 5370.338
1457.766, 5343.511
1458.950, 5242.363
1460.134, 5271.346
1461.318, 5319.229
1462.501, 5250.011
1463.685, 5280.820
1464.868, 5345.210
1466.051, 5298.267
1467.234, 5274.716
1468.417, 5316.373
1469.600, 5305.208
1470.782, 5270.141
1471.965, 5339.301
1473.147, 5289.022
1474.329, 5385.188
1475.510, 5358.966
1476.692, 5399.794
1477.873, 5344.000
1479.055, 5354.000
1480.236, 5288.000
1481.416, 5380.000
1482.597, 5352.000
1483.778, 5437.000
1484.958, 5395.000
1486.138, 5387.000
1487.318, 5382.000
1488.498, 5377.230
1489.678, 5381.875
1490.857, 5413.000
1492.037, 5387.000
1493.216, 5444.000
1494.395, 5432.000
1495.574, 5422.000
1496.752, 5462.000
1497.931, 5449.199
1499.109, 5455.000
1500.287, 5442.000
1501.465, 5457.000
1502.643, 5413.000
1503.820, 5420.000
1504.998, 5380.000
1506.175, 5416.000
1507.352, 5448.000
1508.529, 5435.294
1509.706, 5477.212
1510.882, 5446.000
1512.059, 5499.000
1513.235, 5510.000
1514.411, 5458.000
1515.587, 5532.000
1516.762, 5537.000
1517.938, 5461.000
##END=



