##NAMES=Hydrotalcite
##RRUFFID=R050457
##IDEAL CHEMISTRY=Mg_6_Al_2_CO_3_(OH)_16_(H_2_O)_4_
##LOCALITY=Snarum, Norway
##OWNER=RRUFF
##SOURCE=University of Arizona Mineral Museum
##DESCRIPTION=Pearly-white foliated mass
##STATUS=The identification of this mineral has been confirmed by X-ray diffraction and chemical analysis
##URL=rruff.info/R050457
##MEASURED CHEMISTRY=Mg_6.00_(Al_1.60_Fe^3+^_0.40_)_Σ=2_(CO_3_)(OH)_16_·4H_2_O
112.8640, 13461.00
114.2540, 14035.00
115.6440, 14230.00
117.0340, 14592.00
118.4240, 14652.00
119.8130, 14440.00
121.2030, 14804.00
122.5920, 14781.00
123.9810, 14830.00
125.3690, 14998.00
126.7580, 14958.00
128.1460, 15402.00
129.5340, 15184.00
130.9220, 15510.00
132.3090, 15321.00
133.6960, 15549.00
135.0830, 15366.00
136.4700, 15702.00
137.8570, 15605.00
139.2430, 15802.00
140.6300, 15772.00
142.0160, 15818.00
143.4010, 15830.00
144.7870, 16001.00
146.1720, 16114.00
147.5570, 16115.00
148.9420, 15966.00
150.3270, 15851.00
151.7110, 16050.00
153.0960, 16032.00
154.4800, 16125.00
155.8630, 15866.00
157.2470, 15694.00
158.6300, 15836.00
160.0130, 15646.00
161.3960, 15523.00
162.7790, 15564.00
164.1610, 15482.00
165.5440, 15391.00
166.9260, 15330.00
168.3080, 15269.00
169.6890, 15242.00
171.0700, 15206.65
172.4520, 15276.00
173.8330, 15152.00
175.2130, 15177.00
176.5940, 15120.00
177.9740, 14983.00
179.3540, 15206.00
180.7340, 15101.00
182.1140, 15142.00
183.4930, 15036.00
184.8720, 15035.00
186.2510, 15027.00
187.6300, 15054.00
189.0080, 15029.00
190.3870, 14921.00
191.7650, 15121.00
193.1430, 14960.00
194.5200, 15236.00
195.8980, 14891.00
197.2750, 15120.00
198.6520, 14963.00
200.0290, 15109.00
201.4050, 15029.00
202.7820, 14983.00
204.1580, 15021.00
205.5340, 15117.00
206.9090, 15134.00
208.2850, 15044.00
209.6600, 15025.00
211.0350, 15038.00
212.4100, 14966.00
213.7840, 15066.00
215.1590, 14913.00
216.5330, 14990.00
217.9070, 15143.00
219.2810, 15145.00
220.6540, 15098.00
222.0270, 15154.59
223.4000, 15149.00
224.7730, 15168.00
226.1460, 15202.00
227.5180, 15262.00
228.8910, 15173.00
230.2630, 15164.00
231.6340, 15237.00
233.0060, 15174.00
234.3770, 15040.00
235.7480, 15246.00
237.1190, 15332.00
238.4900, 15197.00
239.8600, 15354.00
241.2310, 15340.00
242.6010, 15367.00
243.9700, 15388.00
245.3400, 15505.00
246.7090, 15459.00
248.0790, 15422.00
249.4480, 15540.00
250.8160, 15482.00
252.1850, 15549.00
253.5530, 15488.00
254.9210, 15537.00
256.2890, 15639.00
257.6570, 15576.00
259.0240, 15664.00
260.3910, 15641.00
261.7580, 15824.00
263.1250, 15716.00
264.4920, 15739.00
265.8580, 15910.00
267.2240, 15868.00
268.5900, 15961.00
269.9560, 15877.00
271.3210, 16008.00
272.6870, 16035.00
274.0520, 15955.00
275.4160, 16004.00
276.7810, 16192.00
278.1460, 16051.00
279.5100, 16010.00
280.8740, 16258.00
282.2370, 16175.00
283.6010, 16359.00
284.9640, 16272.00
286.3270, 16335.00
287.6900, 16458.00
289.0530, 16468.00
290.4160, 16483.00
291.7780, 16598.00
293.1400, 16458.00
294.5020, 16675.00
295.8630, 16601.00
297.2250, 16706.00
298.5860, 16629.00
299.9470, 16732.00
301.3080, 16768.00
302.6680, 16709.00
304.0290, 16784.00
305.3890, 16925.00
306.7490, 16787.00
308.1080, 16769.00
309.4680, 17112.00
310.8270, 16832.00
312.1860, 16889.00
313.5450, 16847.00
314.9030, 17048.00
316.2620, 17115.00
317.6200, 17009.00
318.9780, 17214.00
320.3360, 16968.00
321.6930, 17134.00
323.0510, 17232.00
324.4080, 17417.00
325.7650, 17132.00
327.1210, 17418.00
328.4780, 17232.00
329.8340, 17242.00
331.1900, 17361.00
332.5460, 17493.00
333.9020, 17223.00
335.2570, 17480.00
336.6120, 17376.00
337.9670, 17522.00
339.3220, 17666.00
340.6770, 17472.00
342.0310, 17608.00
343.3850, 17551.00
344.7390, 17812.00
346.0930, 17506.00
347.4460, 17595.00
348.7990, 17586.00
350.1530, 17788.00
351.5050, 17695.00
352.8580, 17751.00
354.2100, 17641.00
355.5630, 17802.00
356.9150, 17837.00
358.2670, 17897.00
359.6180, 17916.00
360.9690, 17838.00
362.3210, 18117.00
363.6720, 17980.00
365.0220, 18008.00
366.3730, 18181.00
367.7230, 18016.00
369.0730, 18197.00
370.4230, 18157.00
371.7730, 18336.00
373.1220, 18341.55
374.4710, 18194.00
375.8210, 18433.00
377.1690, 18398.00
378.5180, 18555.00
379.8660, 18299.00
381.2150, 18416.00
382.5630, 18597.00
383.9100, 18713.00
385.2580, 18490.00
386.6050, 18643.00
387.9520, 18617.00
389.2990, 18574.00
390.6460, 18666.00
391.9920, 18637.00
393.3390, 18489.00
394.6850, 18695.00
396.0310, 18736.00
397.3760, 18994.00
398.7220, 18696.00
400.0670, 18800.00
401.4120, 18752.00
402.7570, 18748.00
404.1010, 18878.00
405.4460, 18843.00
406.7900, 18849.00
408.1340, 18925.00
409.4780, 18937.00
410.8210, 19016.00
412.1650, 19107.00
413.5080, 18894.00
414.8510, 19216.00
416.1930, 19295.00
417.5360, 19011.00
418.8780, 19197.00
420.2200, 19225.00
421.5620, 19226.00
422.9040, 19137.00
424.2450, 19442.00
425.5860, 19440.00
426.9270, 19398.00
428.2680, 19588.00
429.6090, 19546.00
430.9490, 19428.00
432.2890, 19694.00
433.6290, 19841.00
434.9690, 19678.00
436.3090, 19817.00
437.6480, 19728.00
438.9870, 20066.00
440.3260, 20016.00
441.6650, 19801.00
443.0030, 20101.00
444.3420, 20266.00
445.6800, 20336.00
447.0180, 20426.00
448.3550, 20620.00
449.6930, 20383.00
451.0300, 20423.00
452.3670, 20578.00
453.7040, 20691.00
455.0410, 20304.00
456.3770, 20449.00
457.7130, 20494.00
459.0490, 20512.00
460.3850, 20725.00
461.7210, 20674.00
463.0560, 20841.00
464.3910, 20869.00
465.7260, 20845.00
467.0610, 21143.00
468.3950, 21052.00
469.7300, 20963.00
471.0640, 21185.00
472.3980, 20832.00
473.7310, 21292.00
475.0650, 20792.00
476.3980, 20900.00
477.7310, 20846.00
479.0640, 21003.00
480.3970, 20803.00
481.7290, 20841.00
483.0620, 21132.00
484.3940, 21058.00
485.7250, 21046.00
487.0570, 20969.00
488.3890, 21109.00
489.7200, 21054.00
491.0510, 20918.00
492.3820, 21222.00
493.7120, 21184.00
495.0430, 21215.00
496.3730, 21144.00
497.7030, 21120.00
499.0320, 21261.00
500.3620, 21328.00
501.6910, 21338.00
503.0200, 21376.00
504.3490, 21484.00
505.6780, 21613.00
507.0070, 21536.00
508.3350, 21655.72
509.6630, 21732.27
510.9910, 21748.00
512.3190, 21992.00
513.6460, 22041.00
514.9730, 22294.00
516.3000, 22214.00
517.6270, 22422.00
518.9540, 22736.00
520.2800, 22648.00
521.6070, 22950.00
522.9330, 23057.00
524.2590, 23304.00
525.5840, 23492.00
526.9100, 23601.00
528.2350, 23962.00
529.5600, 23820.00
530.8850, 24139.00
532.2090, 24028.00
533.5340, 24124.00
534.8580, 24429.00
536.1820, 24409.00
537.5060, 24510.00
538.8290, 24666.00
540.1520, 24886.00
541.4760, 24998.00
542.7990, 25464.00
544.1210, 24936.00
545.4440, 25500.00
546.7660, 25411.00
548.0880, 25030.00
549.4100, 24989.00
550.7320, 24634.00
552.0530, 24537.00
553.3750, 24390.00
554.6960, 23929.00
556.0170, 23930.00
557.3370, 23758.00
558.6580, 23673.00
559.9780, 23431.00
561.2980, 23144.00
562.6180, 23509.00
563.9380, 23157.00
565.2570, 23204.00
566.5760, 23310.00
567.8950, 22993.00
569.2140, 23303.00
570.5330, 23190.00
571.8510, 23127.00
573.1700, 23001.00
574.4880, 23140.00
575.8050, 23206.00
577.1230, 23130.00
578.4400, 22971.00
579.7580, 23188.00
581.0750, 23436.00
582.3910, 23189.00
583.7080, 23385.00
585.0240, 23196.00
586.3410, 23188.00
587.6570, 23422.00
588.9720, 23593.00
590.2880, 23737.00
591.6030, 23557.00
592.9180, 23326.00
594.2330, 23684.00
595.5480, 23607.00
596.8630, 23604.00
598.1770, 23654.00
599.4910, 23665.00
600.8050, 23755.00
602.1190, 23768.00
603.4320, 23774.00
604.7460, 23926.00
606.0590, 23911.00
607.3720, 23902.00
608.6850, 23835.00
609.9970, 24236.00
611.3090, 24014.00
612.6210, 24192.00
613.9330, 24036.00
615.2450, 24186.00
616.5570, 24232.00
617.8680, 24277.00
619.1790, 24289.00
620.4900, 24449.00
621.8010, 24251.00
623.1110, 24693.00
624.4210, 24169.00
625.7310, 24602.00
627.0410, 24314.00
628.3510, 24664.00
629.6600, 24408.00
630.9700, 24433.00
632.2790, 24762.00
633.5880, 24496.00
634.8960, 24633.00
636.2050, 24487.00
637.5130, 24917.00
638.8210, 24627.00
640.1290, 24737.00
641.4370, 25014.00
642.7440, 24896.00
644.0510, 24695.00
645.3580, 24794.00
646.6650, 24920.00
647.9720, 24990.00
649.2780, 24904.00
650.5840, 24961.00
651.8900, 24750.00
653.1960, 25434.00
654.5020, 25056.00
655.8070, 25202.00
657.1130, 24912.00
658.4180, 25249.00
659.7220, 25496.00
661.0270, 25276.00
662.3310, 25124.00
663.6360, 25350.00
664.9400, 25450.00
666.2440, 25226.00
667.5470, 25381.00
668.8510, 25424.00
670.1540, 25614.00
671.4570, 25408.00
672.7600, 25504.00
674.0620, 25819.00
675.3650, 25523.00
676.6670, 25595.00
677.9690, 25730.00
679.2710, 25811.00
680.5720, 25819.00
681.8740, 25922.83
683.1750, 26008.00
684.4760, 26020.00
685.7770, 26065.00
687.0770, 26056.00
688.3780, 25871.00
689.6780, 26178.00
690.9780, 26029.00
692.2780, 26158.00
693.5770, 26208.05
694.8770, 26490.00
696.1760, 26177.00
697.4750, 26403.00
698.7740, 26226.00
700.0720, 26417.00
701.3710, 26398.00
702.6690, 26464.00
703.9670, 26184.00
705.2650, 26490.00
706.5620, 26904.00
707.8600, 26594.00
709.1570, 26380.00
710.4540, 26817.00
711.7510, 26466.00
713.0470, 26912.00
714.3440, 26587.00
715.6400, 26833.00
716.9360, 26604.00
718.2320, 26892.00
719.5270, 27160.00
720.8230, 27068.00
722.1180, 26893.00
723.4130, 27041.00
724.7080, 27120.00
726.0020, 27123.00
727.2970, 27280.00
728.5910, 27339.91
729.8850, 27262.00
731.1790, 27442.00
732.4720, 27414.00
733.7660, 27250.00
735.0590, 27266.00
736.3520, 27332.00
737.6450, 27602.00
738.9370, 27704.00
740.2300, 27776.00
741.5220, 27792.87
742.8140, 27843.12
744.1060, 27691.00
745.3970, 27840.00
746.6890, 27850.00
747.9800, 27768.00
749.2710, 27961.00
750.5620, 27864.00
751.8530, 28203.00
753.1430, 27809.00
754.4330, 28184.00
755.7230, 28054.00
757.0130, 27962.00
758.3030, 28439.00
759.5920, 27908.00
760.8810, 28187.00
762.1700, 28244.00
763.4590, 28456.00
764.7480, 28296.00
766.0360, 28300.00
767.3250, 28763.00
768.6130, 28156.00
769.9010, 28646.00
771.1880, 28560.00
772.4760, 28308.00
773.7630, 28928.00
775.0500, 28425.00
776.3370, 28712.00
777.6240, 28654.00
778.9100, 28901.00
780.1960, 28883.00
781.4820, 28906.00
782.7680, 28780.00
784.0540, 28777.00
785.3390, 28875.00
786.6250, 28901.00
787.9100, 28856.00
789.1950, 29248.00
790.4790, 29012.00
791.7640, 28988.00
793.0480, 29312.00
794.3320, 28996.00
795.6160, 29454.00
796.9000, 29300.00
798.1830, 29539.00
799.4670, 29281.00
800.7500, 29369.00
802.0330, 29456.00
803.3160, 29243.00
804.5980, 29850.00
805.8800, 29328.00
807.1630, 29786.00
808.4450, 29546.00
809.7260, 29617.00
811.0080, 29718.00
812.2890, 29685.00
813.5700, 29754.00
814.8510, 29844.00
816.1320, 29976.00
817.4130, 29807.00
818.6930, 29850.00
819.9730, 30160.00
821.2530, 30186.00
822.5330, 30024.00
823.8130, 30288.00
825.0920, 30332.00
826.3710, 30096.00
827.6500, 30312.00
828.9290, 30234.00
830.2080, 30622.00
831.4860, 30740.00
832.7640, 30242.00
834.0420, 30482.00
835.3200, 30570.00
836.5980, 30714.00
837.8750, 30760.00
839.1520, 30657.00
840.4290, 30844.00
841.7060, 31003.00
842.9830, 30734.00
844.2590, 30909.00
845.5360, 31205.00
846.8120, 30674.00
848.0880, 31014.00
849.3630, 30860.00
850.6390, 31278.00
851.9140, 31115.00
853.1890, 30900.00
854.4640, 30952.00
855.7390, 31336.00
857.0130, 31616.00
858.2880, 31347.00
859.5620, 31096.00
860.8360, 31466.00
862.1100, 31464.00
863.3830, 31280.00
864.6560, 31664.00
865.9300, 31594.00
867.2030, 31603.00
868.4750, 31634.00
869.7480, 31817.00
871.0200, 31591.00
872.2920, 31888.00
873.5640, 31811.00
874.8360, 31954.00
876.1080, 31835.00
877.3790, 31848.00
878.6500, 32124.00
879.9220, 32212.00
881.1920, 32028.00
882.4630, 31959.00
883.7330, 32147.00
885.0040, 32124.00
886.2740, 32352.00
887.5440, 32248.00
888.8130, 32406.00
890.0830, 32288.00
891.3520, 32348.00
892.6210, 32365.00
893.8900, 32507.00
895.1590, 32595.00
896.4270, 32435.00
897.6950, 32612.00
898.9640, 32616.53
900.2320, 32648.00
901.4990, 32752.00
902.7670, 32888.00
904.0340, 32963.00
905.3010, 33102.19
906.5680, 33135.97
907.8350, 33286.00
909.1020, 33168.00
910.3680, 33086.00
911.6340, 33024.00
912.9000, 33316.00
914.1660, 33242.00
915.4320, 33584.00
916.6970, 33425.00
917.9620, 33170.00
919.2270, 33598.00
920.4920, 33360.00
921.7570, 33696.00
923.0210, 33492.00
924.2850, 33701.00
925.5500, 33730.00
926.8130, 33784.00
928.0770, 33710.00
929.3410, 33694.00
930.6040, 33734.00
931.8670, 34064.00
933.1300, 33574.00
934.3930, 33895.00
935.6550, 34114.00
936.9180, 33811.00
938.1800, 34368.00
939.4420, 34091.00
940.7030, 34008.00
941.9650, 34306.00
943.2260, 34216.00
944.4880, 34346.83
945.7490, 34235.00
947.0090, 34474.00
948.2700, 34422.00
949.5300, 34347.00
950.7910, 34557.00
952.0510, 34733.00
953.3110, 34462.00
954.5700, 34240.00
955.8300, 34688.00
957.0890, 34492.00
958.3480, 34716.00
959.6070, 34619.00
960.8660, 34712.00
962.1240, 34668.00
963.3830, 34767.00
964.6410, 35110.00
965.8990, 34722.00
967.1560, 35196.00
968.4140, 34949.00
969.6710, 34995.00
970.9280, 35236.00
972.1850, 34979.00
973.4420, 35381.00
974.6990, 35333.00
975.9550, 35723.00
977.2110, 35656.00
978.4680, 35374.00
979.7230, 35782.00
980.9790, 35671.00
982.2340, 35690.00
983.4900, 36272.00
984.7450, 35784.00
986.0000, 36802.00
987.2540, 37072.00
988.5090, 37465.00
989.7630, 39172.00
991.0170, 40532.00
992.2710, 41296.00
993.5250, 41262.00
994.7790, 40252.00
996.0320, 39008.00
997.2850, 37824.00
998.5380, 37333.00
999.7910, 36514.00
1001.044, 37112.00
1002.296, 36294.00
1003.548, 36432.00
1004.800, 36275.00
1006.052, 36380.00
1007.304, 36508.00
1008.555, 36353.00
1009.807, 36592.00
1011.058, 36504.00
1012.309, 36467.00
1013.559, 36659.00
1014.810, 36648.00
1016.060, 36458.00
1017.310, 36920.00
1018.560, 36870.00
1019.810, 36514.00
1021.060, 36798.23
1022.309, 37006.46
1023.558, 37135.77
1024.807, 37190.70
1026.056, 36931.81
1027.305, 37090.90
1028.553, 37090.23
1029.801, 37088.34
1031.049, 37322.10
1032.297, 37137.41
1033.545, 37378.64
1034.793, 37457.61
1036.040, 37618.88
1037.287, 37619.38
1038.534, 37676.80
1039.781, 37906.11
1041.027, 38048.78
1042.274, 37688.00
1043.520, 37788.00
1044.766, 38163.00
1046.012, 37891.00
1047.257, 38053.00
1048.503, 37907.00
1049.748, 38459.00
1050.993, 38204.00
1052.238, 38541.00
1053.483, 38434.00
1054.727, 38682.00
1055.971, 38699.00
1057.216, 39213.00
1058.459, 39499.00
1059.703, 39640.00
1060.947, 39774.12
1062.190, 39769.41
1063.433, 39720.00
1064.676, 39536.00
1065.919, 39442.00
1067.162, 39141.00
1068.404, 39320.00
1069.646, 38691.00
1070.888, 38673.00
1072.130, 38994.00
1073.372, 38603.00
1074.613, 38741.00
1075.855, 38929.00
1077.096, 38544.00
1078.337, 38546.00
1079.578, 39190.00
1080.818, 38848.00
1082.059, 39092.00
1083.299, 38821.00
1084.539, 39040.00
1085.779, 38914.00
1087.018, 39010.00
1088.258, 39082.00
1089.497, 39160.00
1090.736, 39107.00
1091.975, 39196.00
1093.213, 39098.00
1094.452, 39175.00
1095.690, 39212.86
1096.928, 39011.00
1098.166, 39331.00
1099.404, 39437.00
1100.642, 39507.00
1101.879, 39302.00
1103.116, 39678.00
1104.353, 39488.00
1105.590, 39658.00
1106.827, 39194.00
1108.063, 39819.00
1109.299, 39445.00
1110.536, 39768.00
1111.771, 39787.00
1113.007, 39440.00
1114.243, 39976.00
1115.478, 39810.00
1116.713, 39733.00
1117.948, 39826.00
1119.183, 39897.00
1120.418, 39939.76
1121.652, 39851.00
1122.886, 40104.00
1124.120, 40021.00
1125.354, 40077.00
1126.588, 39736.00
1127.821, 40016.00
1129.055, 39896.00
1130.288, 40109.00
1131.521, 40046.00
1132.753, 39996.00
1133.986, 39992.00
1135.218, 40091.00
1136.450, 40445.00
1137.682, 39880.00
1138.914, 40593.00
1140.146, 40201.00
1141.377, 40160.00
1142.609, 40276.00
1143.840, 40169.00
1145.071, 40592.00
1146.301, 40819.00
1147.532, 40557.00
1148.762, 40645.00
1149.992, 40470.00
1151.222, 40544.00
1152.452, 40782.00
1153.682, 40950.00
1154.911, 40443.00
1156.140, 40952.00
1157.369, 40632.00
1158.598, 40705.00
1159.827, 41080.00
1161.055, 41360.00
1162.284, 40818.00
1163.512, 41210.00
1164.740, 41156.00
1165.967, 41496.00
1167.195, 40936.00
1168.422, 41577.00
1169.650, 41251.00
1170.877, 41421.00
1172.103, 41424.00
1173.330, 41344.00
1174.557, 41569.00
1175.783, 41754.00
1177.009, 41702.00
1178.235, 41198.00
1179.461, 41953.00
1180.686, 41620.00
1181.912, 41678.00
1183.137, 42298.00
1184.362, 42240.00
1185.587, 41954.00
1186.811, 41994.00
1188.036, 42243.00
1189.260, 42211.00
1190.484, 42156.00
1191.708, 42459.00
1192.932, 42728.00
1194.155, 42280.00
1195.378, 42485.00
1196.602, 42390.00
1197.825, 42577.00
1199.047, 42507.00
1200.270, 42816.00
1201.492, 42564.00
1202.715, 43082.00
1203.937, 42372.00
1205.159, 43029.00
1206.380, 42908.00
1207.602, 43230.00
1208.823, 42627.00
1210.044, 42868.00
1211.265, 43275.00
1212.486, 43059.00
1213.707, 43364.00
1214.927, 43483.00
1216.147, 43438.00
1217.367, 43377.00
1218.587, 43525.00
1219.807, 43600.00
1221.027, 43377.00
1222.246, 43776.00
1223.465, 43387.00
1224.684, 43849.00
1225.903, 44137.00
1227.121, 43843.00
1228.340, 43520.00
1229.558, 44185.00
1230.776, 44072.00
1231.994, 43689.00
1233.212, 43944.00
1234.429, 44144.00
1235.646, 44089.00
1236.864, 44144.00
1238.081, 44549.00
1239.297, 44139.00
1240.514, 44507.00
1241.730, 44730.00
1242.947, 44538.00
1244.163, 44409.00
1245.378, 44658.00
1246.594, 44782.00
1247.810, 44864.00
1249.025, 44618.00
1250.240, 44995.00
1251.455, 44720.00
1252.670, 45014.00
1253.885, 45064.00
1255.099, 45110.00
1256.313, 45226.39
1257.527, 44829.00
1258.741, 45232.00
1259.955, 45166.00
1261.168, 44992.00
1262.382, 45256.00
1263.595, 45476.00
1264.808, 45482.00
1266.021, 45242.00
1267.233, 45467.00
1268.446, 45462.00
1269.658, 45774.00
1270.870, 45743.90
1272.082, 45564.00
1273.294, 45790.00
1274.505, 45628.00
1275.716, 45704.00
1276.928, 45865.00
1278.139, 45524.00
1279.349, 46232.00
1280.560, 45990.00
1281.770, 46232.00
1282.981, 46184.00
1284.191, 46096.00
1285.401, 46248.00
1286.610, 46392.00
1287.820, 46320.00
1289.029, 46424.00
1290.239, 46130.00
1291.448, 46712.00
1292.656, 46433.00
1293.865, 46440.00
1295.073, 46732.00
1296.282, 46665.00
1297.490, 46858.61
1298.698, 46742.00
1299.906, 47053.00
1301.113, 47152.00
1302.320, 47048.00
1303.528, 47068.00
1304.735, 47184.00
1305.942, 46907.00
1307.148, 47468.00
1308.355, 47456.00
1309.561, 47416.00
1310.767, 47731.00
1311.973, 47506.00
1313.179, 47598.00
1314.384, 47232.00
1315.590, 47980.00
1316.795, 47732.00
1318.000, 48030.00
1319.205, 47821.00
1320.410, 48049.00
1321.614, 48099.00
1322.819, 47870.00
1324.023, 48390.00
1325.227, 48250.00
1326.431, 48797.00
1327.634, 48386.00
1328.838, 48332.00
1330.041, 48636.00
1331.244, 48947.00
1332.447, 49152.00
1333.650, 49029.00
1334.852, 49092.00
1336.055, 49664.00
1337.257, 49431.00
1338.459, 49953.00
1339.661, 50069.00
1340.862, 50344.00
1342.064, 50476.00
1343.265, 50944.00
1344.466, 51289.00
1345.667, 51952.00
1346.868, 51893.00
1348.068, 52587.00
1349.269, 52658.00
1350.469, 52408.00
1351.669, 52592.00
1352.869, 52484.00
1354.069, 52182.00
1355.268, 52168.00
1356.468, 51528.00
1357.667, 51640.00
1358.866, 51501.00
1360.065, 50901.00
1361.263, 51272.00
1362.462, 50848.00
1363.660, 50686.00
1364.858, 51098.00
1366.056, 50816.00
1367.254, 51144.00
1368.451, 51237.00
1369.649, 51128.00
1370.846, 50964.00
1372.043, 51368.00
1373.240, 51257.00
1374.436, 51337.00
1375.633, 51594.00
1376.829, 51481.00
1378.025, 51638.00
1379.221, 51442.00
1380.417, 51971.00
1381.613, 51971.00
1382.808, 51806.00
1384.003, 52107.00
1385.199, 52148.00
1386.393, 52202.00
1387.588, 52032.00
1388.783, 52392.00
1389.977, 52251.00
1391.171, 52520.00
1392.365, 52163.00
1393.559, 52225.00
1394.753, 52726.00
1395.946, 52321.00
1397.140, 52656.00
1398.333, 52448.00
1399.526, 52938.00
1400.719, 52613.00
1401.911, 53030.00
1403.104, 52835.00
1404.296, 52937.00
1405.488, 52792.00
1406.680, 53094.00
1407.872, 52818.00
1409.063, 53113.00
1410.255, 53324.00
1411.446, 52955.00
1412.637, 53396.00
1413.828, 52974.00
1415.018, 53440.00
1416.209, 53532.00
1417.399, 53728.00
1418.589, 53465.00
1419.779, 53842.00
1420.969, 53724.00
1422.159, 53650.00
1423.348, 53848.00
1424.537, 54040.00
1425.726, 54020.00
1426.915, 54202.00
1428.104, 54117.00
##END=



