##NAMES=Libethenite
##RRUFFID=R050147
##IDEAL CHEMISTRY=Cu^2+^_2_PO_4_(OH)
##LOCALITY=Los Azules mine, Copiapo, Chile
##OWNER=RRUFF
##SOURCE=Jim McGlasson
##DESCRIPTION=Dark green prismatic crystals, associated with smaller lighter green pseudomalachite
##STATUS=The identification of this mineral is confirmed by single-crystal X-ray diffraction and chemical analysis.
##URL=rruff.info/R050147
##MEASURED CHEMISTRY=Cu_2.00_(P_1.00_O_4_)((OH)_0.89_F_0.11_)_Î£=1_
26.288, 1.595e+004
27.694, 1.527e+004
29.099, 1.498e+004
30.504, 1.532e+004
31.909, 1.450e+004
33.313, 1.394e+004
34.717, 1.347e+004
36.121, 1.337e+004
37.525, 1.308e+004
38.929, 1.308e+004
40.332, 1.253e+004
41.735, 1.205e+004
43.138, 1.204e+004
44.541, 1.147e+004
45.943, 1.158e+004
47.345, 1.135e+004
48.747, 1.088e+004
50.149, 1.038e+004
51.551, 1.047e+004
52.952, 9.806e+003
54.353, 9.568e+003
55.754, 9.628e+003
57.155, 9.532e+003
58.555, 9.412e+003
59.955, 9.194e+003
61.355, 9.259e+003
62.755, 9.694e+003
64.154, 9.297e+003
65.553, 9.605e+003
66.952, 9.680e+003
68.351, 9.738e+003
69.750, 1.020e+004
71.148, 1.066e+004
72.546, 1.089e+004
73.944, 1.117e+004
75.342, 1.134e+004
76.739, 1.194e+004
78.136, 1.201e+004
79.533, 1.162e+004
80.930, 1.149e+004
82.327, 1.182e+004
83.723, 1.187e+004
85.119, 1.181e+004
86.515, 1.211e+004
87.910, 1.233e+004
89.306, 1.235e+004
90.701, 1.313e+004
92.096, 1.340e+004
93.490, 1.376e+004
94.885, 1.390e+004
96.279, 1.369e+004
97.673, 1.436e+004
99.067, 1.695e+004
100.461, 1.538e+004
101.854, 1.513e+004
103.247, 1.558e+004
104.640, 1.607e+004
106.032, 1.629e+004
107.425, 1.671e+004
108.817, 1.674e+004
110.209, 1.655e+004
111.601, 1.652e+004
112.992, 1.694e+004
114.384, 1.729e+004
115.775, 1.727e+004
117.166, 1.747e+004
118.556, 1.756e+004
119.947, 1.739e+004
121.337, 1.798e+004
122.727, 1.838e+004
124.116, 1.862e+004
125.506, 1.861e+004
126.895, 1.891e+004
128.284, 1.943e+004
129.673, 1.950e+004
131.062, 1.972e+004
132.450, 1.953e+004
133.838, 1.963e+004
135.226, 1.943e+004
136.614, 1.965e+004
138.001, 1.953e+004
139.388, 1.931e+004
140.775, 1.898e+004
142.162, 1.891e+004
143.549, 1.904e+004
144.935, 1.881e+004
146.321, 1.893e+004
147.707, 1.900e+004
149.093, 1.899e+004
150.478, 1.930e+004
151.863, 1.944e+004
153.248, 1.960e+004
154.633, 1.981e+004
156.018, 1.983e+004
157.402, 2.000e+004
158.786, 2.012e+004
160.170, 2.054e+004
161.554, 2.032e+004
162.937, 2.058e+004
164.320, 2.048e+004
165.703, 2.059e+004
167.086, 2.080e+004
168.469, 2.072e+004
169.851, 2.100e+004
171.233, 2.092e+004
172.615, 2.118e+004
173.996, 2.122e+004
175.378, 2.180e+004
176.759, 2.198e+004
178.140, 2.250e+004
179.521, 2.329e+004
180.901, 2.419e+004
182.281, 2.506e+004
183.662, 2.599e+004
185.041, 2.708e+004
186.421, 2.822e+004
187.800, 2.889e+004
189.180, 2.942e+004
190.558, 2.957e+004
191.937, 2.891e+004
193.316, 2.812e+004
194.694, 2.641e+004
196.072, 2.468e+004
197.450, 2.273e+004
198.827, 2.148e+004
200.205, 1.995e+004
201.582, 1.925e+004
202.959, 1.863e+004
204.336, 1.810e+004
205.712, 1.765e+004
207.088, 1.773e+004
208.465, 1.785e+004
209.840, 1.828e+004
211.216, 1.899e+004
212.591, 2.019e+004
213.967, 2.143e+004
215.341, 2.290e+004
216.716, 2.471e+004
218.091, 2.620e+004
219.465, 2.778e+004
220.839, 2.829e+004
222.213, 2.858e+004
223.586, 2.801e+004
224.960, 2.693e+004
226.333, 2.524e+004
227.706, 2.380e+004
229.079, 2.223e+004
230.451, 2.083e+004
231.823, 1.962e+004
233.195, 1.864e+004
234.567, 1.790e+004
235.939, 1.735e+004
237.310, 1.688e+004
238.682, 1.658e+004
240.052, 1.648e+004
241.423, 1.636e+004
242.794, 1.648e+004
244.164, 1.641e+004
245.534, 1.603e+004
246.904, 1.598e+004
248.274, 1.546e+004
249.643, 1.508e+004
251.012, 1.444e+004
252.381, 1.419e+004
253.750, 1.394e+004
255.118, 1.372e+004
256.487, 1.370e+004
257.855, 1.362e+004
259.223, 1.367e+004
260.590, 1.386e+004
261.958, 1.405e+004
263.325, 1.422e+004
264.692, 1.440e+004
266.059, 1.480e+004
267.425, 1.526e+004
268.791, 1.587e+004
270.158, 1.656e+004
271.523, 1.720e+004
272.889, 1.795e+004
274.255, 1.884e+004
275.620, 1.983e+004
276.985, 2.050e+004
278.350, 2.130e+004
279.714, 2.265e+004
281.078, 2.434e+004
282.443, 2.625e+004
283.806, 2.908e+004
285.170, 3.252e+004
286.534, 3.633e+004
287.897, 4.153e+004
289.260, 4.693e+004
290.623, 5.271e+004
291.985, 5.700e+004
293.348, 6.128e+004
294.710, 6.330e+004
296.072, 6.267e+004
297.433, 5.972e+004
298.795, 5.662e+004
300.156, 5.186e+004
301.517, 4.794e+004
302.878, 4.324e+004
304.239, 3.953e+004
305.599, 3.588e+004
306.959, 3.281e+004
308.319, 2.970e+004
309.679, 2.717e+004
311.038, 2.460e+004
312.398, 2.264e+004
313.757, 2.087e+004
315.116, 1.934e+004
316.474, 1.787e+004
317.833, 1.679e+004
319.191, 1.573e+004
320.549, 1.464e+004
321.907, 1.399e+004
323.264, 1.349e+004
324.622, 1.283e+004
325.979, 1.230e+004
327.336, 1.194e+004
328.692, 1.173e+004
330.049, 1.117e+004
331.405, 1.105e+004
332.761, 1.069e+004
334.117, 1.049e+004
335.473, 1.027e+004
336.828, 1.012e+004
338.183, 9.930e+003
339.538, 9.882e+003
340.893, 9.671e+003
342.247, 9.466e+003
343.602, 9.344e+003
344.956, 9.204e+003
346.310, 9.172e+003
347.663, 8.992e+003
349.017, 8.876e+003
350.370, 8.819e+003
351.723, 8.802e+003
353.076, 8.730e+003
354.428, 8.599e+003
355.780, 8.546e+003
357.133, 8.518e+003
358.484, 8.440e+003
359.836, 8.256e+003
361.188, 8.389e+003
362.539, 8.411e+003
363.890, 8.249e+003
365.241, 8.297e+003
366.591, 8.260e+003
367.942, 8.289e+003
369.292, 8.303e+003
370.642, 8.386e+003
371.992, 8.494e+003
373.341, 8.462e+003
374.691, 8.532e+003
376.040, 8.783e+003
377.388, 8.955e+003
378.737, 9.089e+003
380.086, 9.344e+003
381.434, 9.350e+003
382.782, 9.474e+003
384.130, 9.365e+003
385.477, 9.204e+003
386.825, 8.819e+003
388.172, 8.358e+003
389.519, 8.013e+003
390.865, 7.649e+003
392.212, 7.242e+003
393.558, 7.016e+003
394.904, 6.747e+003
396.250, 6.568e+003
397.596, 6.450e+003
398.941, 6.395e+003
400.286, 6.259e+003
401.631, 6.166e+003
402.976, 6.003e+003
404.321, 5.896e+003
405.665, 5.888e+003
407.009, 5.784e+003
408.353, 5.704e+003
409.697, 5.714e+003
411.040, 5.648e+003
412.384, 5.605e+003
413.727, 5.576e+003
415.070, 5.555e+003
416.412, 5.472e+003
417.755, 5.433e+003
419.097, 5.507e+003
420.439, 5.478e+003
421.781, 5.417e+003
423.122, 5.406e+003
424.464, 5.410e+003
425.805, 5.386e+003
427.146, 5.436e+003
428.486, 5.411e+003
429.827, 5.374e+003
431.167, 5.396e+003
432.507, 5.389e+003
433.847, 5.386e+003
435.187, 5.469e+003
436.526, 5.426e+003
437.865, 5.358e+003
439.204, 5.516e+003
440.543, 5.476e+003
441.882, 5.609e+003
443.220, 5.616e+003
444.558, 5.576e+003
445.896, 5.646e+003
447.234, 5.641e+003
448.572, 5.764e+003
449.909, 5.792e+003
451.246, 5.773e+003
452.583, 5.726e+003
453.919, 5.866e+003
455.256, 5.858e+003
456.592, 5.762e+003
457.928, 5.775e+003
459.264, 5.670e+003
460.600, 5.559e+003
461.935, 5.601e+003
463.270, 5.535e+003
464.605, 5.487e+003
465.940, 5.394e+003
467.274, 5.507e+003
468.609, 5.893e+003
469.943, 6.099e+003
471.277, 5.224e+003
472.610, 5.153e+003
473.944, 5.163e+003
475.277, 5.071e+003
476.610, 5.045e+003
477.943, 5.064e+003
479.275, 5.012e+003
480.608, 5.029e+003
481.940, 4.962e+003
483.272, 4.978e+003
484.604, 5.166e+003
485.935, 5.064e+003
487.267, 4.980e+003
488.598, 4.907e+003
489.929, 4.911e+003
491.260, 4.819e+003
492.590, 4.964e+003
493.920, 4.862e+003
495.250, 4.923e+003
496.580, 4.886e+003
497.910, 4.881e+003
499.239, 4.904e+003
500.569, 4.923e+003
501.898, 4.928e+003
503.226, 4.901e+003
504.555, 4.917e+003
505.883, 4.919e+003
507.212, 5.391e+003
508.540, 4.934e+003
509.867, 4.856e+003
511.195, 4.864e+003
512.522, 4.849e+003
513.849, 4.881e+003
515.176, 4.885e+003
516.503, 4.950e+003
517.829, 4.969e+003
519.156, 5.000e+003
520.482, 4.970e+003
521.808, 4.984e+003
523.133, 5.025e+003
524.459, 4.957e+003
525.784, 4.972e+003
527.109, 5.024e+003
528.434, 5.002e+003
529.758, 5.128e+003
531.083, 5.039e+003
532.407, 5.104e+003
533.731, 5.079e+003
535.055, 5.202e+003
536.378, 5.223e+003
537.701, 5.248e+003
539.025, 5.339e+003
540.348, 5.364e+003
541.670, 5.453e+003
542.993, 5.592e+003
544.315, 5.701e+003
545.637, 5.905e+003
546.959, 6.083e+003
548.281, 6.359e+003
549.602, 6.584e+003
550.923, 6.904e+003
552.244, 7.367e+003
553.565, 7.481e+003
554.886, 7.498e+003
556.206, 7.425e+003
557.526, 7.146e+003
558.846, 6.941e+003
560.166, 6.705e+003
561.486, 6.796e+003
562.805, 6.647e+003
564.124, 6.686e+003
565.443, 6.857e+003
566.762, 6.940e+003
568.080, 7.118e+003
569.399, 7.291e+003
570.717, 7.762e+003
572.035, 7.966e+003
573.352, 8.240e+003
574.670, 8.701e+003
575.987, 8.925e+003
577.304, 9.052e+003
578.621, 9.267e+003
579.938, 9.301e+003
581.254, 9.222e+003
582.570, 9.096e+003
583.886, 8.990e+003
585.202, 8.763e+003
586.518, 8.522e+003
587.833, 8.348e+003
589.148, 8.070e+003
590.463, 7.788e+003
591.778, 7.474e+003
593.093, 7.035e+003
594.407, 6.793e+003
595.721, 6.490e+003
597.035, 6.157e+003
598.349, 5.956e+003
599.662, 5.723e+003
600.976, 5.568e+003
602.289, 5.371e+003
603.602, 5.271e+003
604.914, 5.284e+003
606.227, 5.117e+003
607.539, 5.101e+003
608.851, 5.036e+003
610.163, 5.145e+003
611.475, 5.045e+003
612.786, 5.224e+003
614.097, 5.344e+003
615.408, 5.415e+003
616.719, 5.755e+003
618.030, 5.935e+003
619.340, 6.299e+003
620.651, 6.621e+003
621.961, 7.008e+003
623.270, 7.375e+003
624.580, 7.277e+003
625.889, 7.304e+003
627.199, 7.104e+003
628.507, 6.735e+003
629.816, 6.624e+003
631.125, 6.251e+003
632.433, 6.097e+003
633.741, 5.963e+003
635.049, 5.825e+003
636.357, 5.839e+003
637.664, 5.804e+003
638.972, 5.908e+003
640.279, 5.982e+003
641.586, 5.943e+003
642.893, 5.982e+003
644.199, 5.859e+003
645.505, 5.580e+003
646.811, 5.478e+003
648.117, 5.234e+003
649.423, 5.116e+003
650.728, 4.898e+003
652.034, 4.771e+003
653.339, 4.646e+003
654.644, 4.423e+003
655.948, 4.416e+003
657.253, 4.245e+003
658.557, 4.197e+003
659.861, 4.182e+003
661.165, 4.048e+003
662.468, 4.028e+003
663.772, 4.032e+003
665.075, 4.021e+003
666.378, 3.979e+003
667.681, 3.857e+003
668.983, 3.953e+003
670.286, 3.880e+003
671.588, 3.767e+003
672.890, 3.830e+003
674.192, 3.685e+003
675.493, 3.744e+003
676.795, 3.680e+003
678.096, 3.694e+003
679.397, 3.703e+003
680.697, 3.617e+003
681.998, 3.631e+003
683.298, 3.604e+003
684.598, 3.602e+003
685.898, 3.556e+003
687.198, 3.580e+003
688.498, 3.570e+003
689.797, 3.508e+003
691.096, 3.503e+003
692.395, 3.564e+003
693.694, 3.568e+003
694.992, 3.516e+003
696.290, 3.533e+003
697.589, 3.445e+003
698.886, 3.522e+003
700.184, 3.412e+003
701.482, 3.449e+003
702.779, 3.460e+003
704.076, 3.415e+003
705.373, 3.458e+003
706.669, 3.399e+003
707.966, 3.410e+003
709.262, 3.437e+003
710.558, 3.392e+003
711.854, 3.370e+003
713.150, 3.359e+003
714.445, 3.431e+003
715.740, 3.417e+003
717.035, 3.425e+003
718.330, 3.422e+003
719.625, 3.416e+003
720.919, 3.441e+003
722.214, 3.468e+003
723.508, 3.444e+003
724.801, 3.479e+003
726.095, 3.477e+003
727.388, 3.539e+003
728.682, 3.500e+003
729.975, 3.499e+003
731.267, 3.566e+003
732.560, 3.430e+003
733.852, 3.553e+003
735.145, 3.593e+003
736.437, 3.554e+003
737.728, 3.621e+003
739.020, 3.615e+003
740.311, 3.703e+003
741.603, 3.655e+003
742.894, 3.745e+003
744.184, 3.747e+003
745.475, 3.716e+003
746.765, 3.837e+003
748.055, 3.782e+003
749.345, 3.800e+003
750.635, 3.879e+003
751.925, 3.841e+003
753.214, 3.973e+003
754.503, 4.000e+003
755.792, 3.931e+003
757.081, 4.070e+003
758.370, 4.110e+003
759.658, 4.114e+003
760.946, 4.130e+003
762.234, 4.070e+003
763.522, 4.048e+003
764.809, 4.035e+003
766.097, 3.942e+003
767.384, 3.871e+003
768.671, 3.802e+003
769.958, 3.768e+003
771.244, 3.727e+003
772.530, 3.697e+003
773.817, 3.693e+003
775.102, 4.482e+003
776.388, 4.229e+003
777.674, 3.628e+003
778.959, 3.566e+003
780.244, 3.605e+003
781.529, 3.536e+003
782.814, 3.531e+003
784.098, 3.527e+003
785.383, 3.546e+003
786.667, 3.566e+003
787.951, 3.570e+003
789.235, 3.569e+003
790.518, 3.564e+003
791.801, 3.545e+003
793.084, 3.581e+003
794.367, 3.508e+003
795.650, 3.597e+003
796.933, 3.607e+003
798.215, 3.518e+003
799.497, 3.581e+003
800.779, 3.598e+003
802.061, 3.590e+003
803.342, 3.635e+003
804.624, 3.677e+003
805.905, 3.673e+003
807.186, 3.616e+003
808.466, 3.725e+003
809.747, 3.710e+003
811.027, 3.698e+003
812.307, 3.776e+003
813.587, 3.724e+003
814.867, 3.741e+003
816.146, 3.706e+003
817.426, 3.707e+003
818.705, 3.747e+003
819.984, 3.710e+003
821.263, 3.646e+003
822.541, 3.718e+003
823.819, 3.631e+003
825.098, 3.715e+003
826.375, 3.592e+003
827.653, 3.539e+003
828.931, 3.600e+003
830.208, 3.534e+003
831.485, 3.604e+003
832.762, 3.543e+003
834.039, 3.626e+003
835.315, 3.578e+003
836.592, 3.520e+003
837.868, 3.610e+003
839.144, 3.581e+003
840.420, 3.533e+003
841.695, 3.550e+003
842.970, 3.525e+003
844.246, 3.581e+003
845.521, 3.585e+003
846.795, 3.599e+003
848.070, 3.646e+003
849.344, 3.632e+003
850.618, 3.625e+003
851.892, 3.710e+003
853.166, 3.668e+003
854.440, 3.814e+003
855.713, 3.743e+003
856.986, 3.749e+003
858.259, 3.805e+003
859.532, 3.771e+003
860.804, 3.787e+003
862.077, 3.746e+003
863.349, 3.790e+003
864.621, 3.860e+003
865.893, 3.836e+003
867.164, 3.986e+003
868.436, 3.839e+003
869.707, 3.911e+003
870.978, 3.926e+003
872.248, 3.842e+003
873.519, 3.948e+003
874.789, 3.971e+003
876.060, 3.960e+003
877.330, 4.011e+003
878.599, 4.068e+003
879.869, 4.150e+003
881.138, 4.221e+003
882.408, 4.224e+003
883.677, 4.302e+003
884.945, 4.309e+003
886.214, 4.365e+003
887.482, 4.540e+003
888.751, 4.456e+003
890.019, 4.558e+003
891.287, 4.663e+003
892.554, 4.684e+003
893.822, 4.734e+003
895.089, 4.751e+003
896.356, 4.818e+003
897.623, 4.898e+003
898.889, 4.986e+003
900.156, 5.063e+003
901.422, 5.037e+003
902.688, 5.170e+003
903.954, 5.194e+003
905.220, 5.193e+003
906.485, 5.334e+003
907.750, 5.412e+003
909.015, 5.539e+003
910.280, 5.635e+003
911.545, 5.482e+003
912.809, 5.641e+003
914.074, 5.683e+003
915.338, 5.734e+003
916.602, 5.902e+003
917.865, 5.899e+003
919.129, 5.889e+003
920.392, 5.993e+003
921.655, 6.020e+003
922.918, 6.195e+003
924.181, 6.235e+003
925.443, 6.303e+003
926.706, 6.477e+003
927.968, 6.517e+003
929.230, 6.631e+003
930.491, 6.687e+003
931.753, 6.873e+003
933.014, 7.011e+003
934.276, 7.032e+003
935.536, 7.272e+003
936.797, 7.415e+003
938.058, 7.238e+003
939.318, 7.495e+003
940.578, 7.456e+003
941.838, 7.562e+003
943.098, 7.782e+003
944.358, 7.704e+003
945.617, 8.204e+003
946.876, 8.356e+003
948.135, 8.630e+003
949.394, 9.232e+003
950.653, 9.468e+003
951.911, 1.028e+004
953.169, 1.075e+004
954.427, 1.151e+004
955.685, 1.265e+004
956.943, 1.348e+004
958.200, 1.514e+004
959.458, 1.655e+004
960.715, 1.847e+004
961.971, 2.109e+004
963.228, 2.371e+004
964.485, 2.762e+004
965.741, 3.200e+004
966.997, 3.652e+004
968.253, 4.271e+004
969.508, 4.751e+004
970.764, 5.165e+004
972.019, 5.385e+004
973.274, 5.226e+004
974.529, 5.045e+004
975.784, 4.521e+004
977.039, 3.947e+004
978.293, 3.444e+004
979.547, 2.911e+004
980.801, 2.569e+004
982.055, 2.219e+004
983.308, 1.940e+004
984.562, 1.726e+004
985.815, 1.546e+004
987.068, 1.422e+004
988.321, 1.320e+004
989.573, 1.200e+004
990.826, 1.146e+004
992.078, 1.091e+004
993.330, 1.062e+004
994.582, 1.026e+004
995.833, 9.990e+003
997.085, 9.960e+003
998.336, 1.012e+004
999.587, 1.005e+004
1000.838, 1.046e+004
1002.088, 1.083e+004
1003.339, 1.078e+004
1004.589, 1.119e+004
1005.839, 1.121e+004
1007.089, 1.158e+004
1008.339, 1.182e+004
1009.588, 1.212e+004
1010.838, 1.254e+004
1012.087, 1.301e+004
1013.336, 1.351e+004
1014.584, 1.393e+004
1015.833, 1.393e+004
1017.081, 1.422e+004
1018.330, 1.366e+004
1019.577, 1.324e+004
1020.825, 1.248e+004
1022.073, 1.177e+004
1023.320, 1.123e+004
1024.567, 1.027e+004
1025.814, 9.601e+003
1027.061, 9.328e+003
1028.308, 9.092e+003
1029.554, 8.390e+003
1030.800, 8.107e+003
1032.046, 7.803e+003
1033.292, 7.801e+003
1034.538, 7.494e+003
1035.783, 7.374e+003
1037.029, 7.311e+003
1038.274, 7.069e+003
1039.519, 7.275e+003
1040.763, 7.116e+003
1042.008, 7.061e+003
1043.252, 7.169e+003
1044.496, 7.227e+003
1045.740, 7.339e+003
1046.984, 7.498e+003
1048.228, 7.300e+003
1049.471, 7.416e+003
1050.714, 7.454e+003
1051.957, 7.255e+003
1053.200, 7.331e+003
1054.442, 7.194e+003
1055.685, 7.188e+003
1056.927, 7.252e+003
1058.169, 7.143e+003
1059.411, 7.499e+003
1060.652, 7.348e+003
1061.894, 7.625e+003
1063.135, 7.794e+003
1064.376, 7.875e+003
1065.617, 8.030e+003
1066.858, 7.936e+003
1068.098, 7.773e+003
1069.339, 7.708e+003
1070.579, 7.223e+003
1071.819, 6.971e+003
1073.058, 6.619e+003
1074.298, 6.233e+003
1075.537, 5.981e+003
1076.776, 5.784e+003
1078.015, 5.463e+003
1079.254, 5.482e+003
1080.493, 5.254e+003
1081.731, 5.073e+003
1082.969, 5.071e+003
1084.207, 4.913e+003
1085.445, 4.970e+003
1086.683, 4.948e+003
1087.920, 4.797e+003
1089.157, 4.903e+003
1090.394, 4.911e+003
1091.631, 4.886e+003
1092.868, 4.966e+003
1094.105, 4.848e+003
1095.341, 4.976e+003
1096.577, 4.916e+003
1097.813, 4.899e+003
1099.049, 5.040e+003
1100.284, 4.956e+003
1101.519, 5.049e+003
1102.755, 5.041e+003
1103.990, 5.023e+003
1105.224, 5.203e+003
1106.459, 5.116e+003
1107.693, 5.217e+003
1108.928, 5.347e+003
1110.162, 5.250e+003
1111.395, 5.433e+003
1112.629, 5.575e+003
1113.863, 5.667e+003
1115.096, 5.834e+003
1116.329, 5.915e+003
1117.562, 6.006e+003
1118.795, 6.264e+003
1120.027, 7.138e+003
1121.259, 7.812e+003
1122.492, 7.255e+003
1123.723, 6.201e+003
1124.955, 5.729e+003
1126.187, 5.326e+003
1127.418, 5.123e+003
1128.649, 4.933e+003
1129.880, 4.720e+003
1131.111, 4.706e+003
1132.342, 4.551e+003
1133.572, 4.443e+003
1134.802, 4.387e+003
1136.033, 4.181e+003
1137.262, 4.174e+003
1138.492, 4.134e+003
1139.722, 3.948e+003
1140.951, 4.014e+003
1142.180, 3.895e+003
1143.409, 3.764e+003
1144.638, 3.742e+003
1145.866, 3.626e+003
1147.095, 3.635e+003
1148.323, 3.575e+003
1149.551, 3.472e+003
1150.779, 3.568e+003
1152.006, 3.436e+003
1153.234, 3.494e+003
1154.461, 3.438e+003
1155.688, 3.321e+003
1156.915, 3.361e+003
1158.141, 3.374e+003
1159.368, 3.316e+003
1160.594, 3.380e+003
1161.820, 3.367e+003
1163.046, 3.308e+003
1164.272, 3.355e+003
1165.498, 3.334e+003
1166.723, 3.363e+003
1167.948, 3.299e+003
1169.173, 3.301e+003
1170.398, 3.340e+003
1171.623, 3.322e+003
1172.847, 3.344e+003
1174.071, 3.365e+003
1175.295, 3.290e+003
1176.519, 3.295e+003
1177.743, 3.350e+003
1178.966, 3.275e+003
1180.190, 3.296e+003
1181.413, 3.310e+003
1182.636, 3.276e+003
1183.858, 3.266e+003
1185.081, 3.224e+003
1186.303, 3.246e+003
1187.526, 3.246e+003
1188.748, 3.194e+003
1189.969, 3.222e+003
1191.191, 3.187e+003
1192.412, 3.200e+003
1193.634, 3.239e+003
1194.855, 3.145e+003
1196.076, 3.145e+003
1197.296, 3.190e+003
1198.517, 3.181e+003
1199.737, 3.176e+003
1200.957, 3.177e+003
1202.177, 3.131e+003
1203.397, 3.120e+003
1204.617, 3.116e+003
1205.836, 3.186e+003
1207.055, 3.156e+003
1208.274, 3.091e+003
1209.493, 3.137e+003
1210.712, 3.089e+003
1211.930, 3.072e+003
1213.148, 3.137e+003
1214.367, 3.092e+003
1215.584, 3.058e+003
1216.802, 3.084e+003
1218.020, 3.001e+003
1219.237, 3.045e+003
1220.454, 2.982e+003
1221.671, 2.990e+003
1222.888, 3.009e+003
1224.105, 2.959e+003
1225.321, 2.968e+003
1226.537, 2.942e+003
1227.753, 2.882e+003
1228.969, 2.954e+003
1230.185, 2.936e+003
1231.400, 2.903e+003
1232.616, 2.930e+003
1233.831, 2.947e+003
1235.046, 2.929e+003
1236.261, 2.861e+003
1237.475, 2.862e+003
1238.689, 2.894e+003
1239.904, 2.929e+003
1241.118, 2.882e+003
1242.332, 2.950e+003
1243.545, 2.905e+003
1244.759, 2.952e+003
1245.972, 3.440e+003
1247.185, 3.395e+003
1248.398, 2.986e+003
1249.611, 2.936e+003
1250.823, 2.908e+003
1252.036, 3.006e+003
1253.248, 2.999e+003
1254.460, 2.967e+003
1255.671, 3.098e+003
1256.883, 3.029e+003
1258.095, 3.080e+003
1259.306, 3.039e+003
1260.517, 3.053e+003
1261.728, 3.046e+003
1262.938, 3.079e+003
1264.149, 3.052e+003
1265.359, 3.072e+003
1266.569, 3.106e+003
1267.779, 3.092e+003
1268.989, 3.057e+003
1270.199, 3.012e+003
1271.408, 3.014e+003
1272.617, 3.032e+003
1273.826, 2.983e+003
1275.035, 3.034e+003
1276.244, 2.964e+003
1277.452, 2.973e+003
1278.661, 3.030e+003
1279.869, 2.930e+003
1281.077, 2.980e+003
1282.285, 3.017e+003
1283.492, 2.968e+003
1284.700, 2.986e+003
1285.907, 2.962e+003
1287.114, 3.023e+003
1288.321, 3.023e+003
1289.527, 3.002e+003
1290.734, 2.944e+003
1291.940, 3.029e+003
1293.146, 2.950e+003
1294.352, 3.050e+003
1295.558, 3.028e+003
1296.763, 3.015e+003
1297.969, 3.052e+003
1299.174, 2.899e+003
1300.379, 2.914e+003
1301.584, 3.006e+003
1302.788, 2.867e+003
1303.993, 2.914e+003
1305.197, 2.866e+003
1306.401, 2.874e+003
1307.605, 2.877e+003
1308.809, 2.784e+003
1310.013, 2.878e+003
1311.216, 2.739e+003
1312.419, 2.713e+003
1313.622, 2.756e+003
1314.825, 2.688e+003
1316.028, 2.662e+003
1317.230, 2.701e+003
1318.432, 2.595e+003
1319.634, 2.662e+003
1320.836, 2.690e+003
1322.038, 2.634e+003
1323.240, 2.584e+003
1324.441, 2.635e+003
1325.642, 2.561e+003
1326.843, 2.579e+003
1328.044, 2.500e+003
1329.245, 2.516e+003
1330.445, 2.560e+003
1331.645, 2.512e+003
1332.845, 2.518e+003
1334.045, 2.547e+003
1335.245, 2.456e+003
1336.445, 3.028e+003
1337.644, 2.566e+003
1338.843, 2.910e+003
1340.042, 3.101e+003
1341.241, 2.446e+003
1342.440, 2.428e+003
1343.638, 2.442e+003
1344.836, 2.404e+003
1346.034, 2.434e+003
1347.232, 2.466e+003
1348.430, 2.384e+003
1349.628, 2.452e+003
1350.825, 2.412e+003
1352.022, 2.425e+003
1353.219, 2.444e+003
1354.416, 2.409e+003
1355.613, 2.446e+003
1356.809, 2.428e+003
1358.005, 2.391e+003
1359.202, 2.390e+003
1360.398, 2.416e+003
1361.593, 2.375e+003
1362.789, 2.422e+003
1363.984, 2.390e+003
1365.179, 2.413e+003
1366.374, 2.392e+003
1367.569, 2.340e+003
1368.764, 2.368e+003
1369.958, 2.422e+003
1371.153, 2.319e+003
1372.347, 2.419e+003
1373.541, 2.296e+003
1374.735, 2.340e+003
1375.928, 2.374e+003
1377.122, 2.368e+003
1378.315, 2.317e+003
1379.508, 2.363e+003
1380.701, 2.325e+003
1381.893, 2.321e+003
1383.086, 2.399e+003
1384.278, 2.322e+003
1385.470, 2.379e+003
1386.662, 2.356e+003
1387.854, 2.301e+003
1389.046, 2.406e+003
1390.237, 2.318e+003
1391.428, 2.343e+003
1392.619, 2.357e+003
1393.810, 2.316e+003
1395.001, 2.371e+003
1396.191, 2.343e+003
1397.382, 2.274e+003
1398.572, 2.335e+003
1399.762, 2.353e+003
1400.952, 2.328e+003
1402.141, 2.350e+003
1403.331, 2.314e+003
1404.520, 2.349e+003
1405.709, 2.342e+003
1406.898, 2.314e+003
1408.087, 2.326e+003
1409.275, 2.347e+003
1410.464, 2.335e+003
1411.652, 2.416e+003
1412.840, 2.321e+003
1414.028, 2.298e+003
1415.215, 2.353e+003
1416.403, 2.353e+003
1417.590, 2.314e+003
1418.777, 2.366e+003
1419.964, 2.319e+003
1421.151, 2.375e+003
1422.338, 2.340e+003
1423.524, 2.330e+003
1424.710, 2.328e+003
1425.896, 2.323e+003
1427.082, 2.298e+003
1428.268, 2.409e+003
1429.453, 2.325e+003
1430.639, 2.344e+003
1431.824, 2.386e+003
1433.009, 2.286e+003
1434.194, 2.277e+003
1435.378, 2.369e+003
1436.563, 2.286e+003
1437.747, 2.337e+003
1438.931, 2.369e+003
1440.115, 2.348e+003
1441.299, 2.324e+003
1442.482, 2.357e+003
1443.666, 2.311e+003
1444.849, 2.368e+003
1446.032, 2.284e+003
1447.215, 2.277e+003
1448.397, 2.360e+003
1449.580, 2.261e+003
1450.762, 2.355e+003
1451.944, 2.325e+003
1453.126, 2.335e+003
1454.308, 2.391e+003
1455.490, 2.340e+003
1456.671, 2.330e+003
1457.852, 2.382e+003
1459.033, 2.322e+003
1460.214, 2.397e+003
1461.395, 2.302e+003
1462.575, 2.316e+003
1463.756, 2.342e+003
1464.936, 2.398e+003
1466.116, 2.352e+003
1467.296, 2.368e+003
1468.475, 2.370e+003
1469.655, 2.366e+003
1470.834, 2.419e+003
1472.013, 2.358e+003
1473.192, 2.358e+003
1474.371, 2.386e+003
1475.550, 2.370e+003
1476.728, 2.377e+003
1477.906, 2.433e+003
1479.084, 2.390e+003
1480.262, 2.404e+003
1481.440, 2.403e+003
1482.617, 2.358e+003
1483.795, 2.419e+003
1484.972, 2.449e+003
1486.149, 2.444e+003
1487.326, 2.427e+003
1488.502, 2.380e+003
1489.679, 2.446e+003
1490.855, 2.416e+003
1492.031, 2.391e+003
1493.207, 2.461e+003
1494.383, 2.434e+003
1495.559, 2.398e+003
1496.734, 2.456e+003
1497.909, 2.458e+003
1499.084, 2.435e+003
1500.259, 2.435e+003
1501.434, 2.467e+003
1502.608, 2.434e+003
1503.783, 2.587e+003
##END=



