##NAMES=Magnesio-hastingsite
##RRUFFID=R040010
##IDEAL CHEMISTRY=NaCa_2_(Mg_4_Fe^3+^)Si_6_Al_2_O_22_(OH)_2_
##LOCALITY=Amity, New York, USA
##OWNER=RRUFF
##SOURCE=University of Arizona Mineral Museum
##DESCRIPTION=Group of black prismatic crystals
##STATUS=The identification of this mineral has been confirmed by X-ray diffraction and chemical analysis
##URL=rruff.info/R040010
##MEASURED CHEMISTRY=(Na_0.50_K_0.43_[box]_0.07_)_Σ=1_(Ca_1.77_Na_0.23_)_Σ=2_(Mg_1.74_Fe_1.22_Fe^3+^_0.79_Mn_0.57_Al_0.30_Zn_0.25_Ti_0.13_)_Σ=5_(Si_5.95_Al_2.05_)_Σ=8_O_22_((OH)_1.75_F_0.22_Cl_0.03_)_Σ=2_; OH estimated by charge balance
164.912, 11149.130
165.394, 11142.470
165.876, 11136.310
166.359, 11130.250
166.841, 11128.820
167.323, 11131.530
167.805, 11140.560
168.287, 11162.500
168.769, 11219.190
169.251, 11283.760
169.733, 11328.490
170.216, 11332.540
170.698, 11329.920
171.180, 11345.150
171.662, 11377.530
172.144, 11419.240
172.626, 11472.510
173.108, 11530.640
173.590, 11584.500
174.072, 11629.700
174.555, 11669.440
175.037, 11704.680
175.519, 11735.140
176.001, 11769.860
176.483, 11817.870
176.965, 11876.130
177.447, 11936.540
177.929, 12002.020
178.412, 12065.360
178.894, 12113.990
179.376, 12145.600
179.858, 12169.390
180.340, 12190.670
180.822, 12210.920
181.304, 12236.630
181.786, 12284.920
182.268, 12340.580
182.751, 12365.970
183.233, 12351.860
183.715, 12318.910
184.197, 12296.210
184.679, 12282.370
185.161, 12266.410
185.643, 12236.530
186.125, 12197.510
186.607, 12166.870
187.090, 12152.240
187.572, 12141.910
188.054, 12112.090
188.536, 12062.700
189.018, 12004.540
189.500, 11940.210
189.982, 11872.740
190.464, 11817.200
190.947, 11779.740
191.429, 11756.060
191.911, 11736.260
192.393, 11721.010
192.875, 11705.880
193.357, 11683.610
193.839, 11654.910
194.321, 11633.100
194.803, 11625.540
195.286, 11629.120
195.768, 11623.890
196.250, 11608.810
196.732, 11589.040
197.214, 11565.660
197.696, 11537.440
198.178, 11523.680
198.661, 11535.030
199.143, 11570.780
199.625, 11607.120
200.107, 11645.870
200.589, 11682.990
201.071, 11708.050
201.553, 11717.390
202.035, 11735.630
202.517, 11778.080
202.999, 11847.400
203.482, 11904.850
203.964, 11942.580
204.446, 11975.660
204.928, 12040.850
205.410, 12147.260
205.892, 12252.210
206.374, 12324.440
206.857, 12354.210
207.339, 12415.960
207.821, 12527.210
208.303, 12665.590
208.785, 12760.200
209.267, 12794.800
209.749, 12826.860
210.231, 12896.730
210.713, 13017.350
211.195, 13122.700
211.678, 13203.200
212.160, 13264.640
212.642, 13329.630
213.124, 13398.160
213.606, 13472.790
214.088, 13557.510
214.570, 13659.590
215.052, 13751.320
215.535, 13826.200
216.017, 13886.550
216.499, 13954.630
216.981, 14035.910
217.463, 14116.380
217.945, 14182.730
218.427, 14227.580
218.909, 14272.620
219.391, 14321.910
219.874, 14375.230
220.356, 14422.850
220.838, 14465.610
221.320, 14500.690
221.802, 14525.790
222.284, 14543.950
222.766, 14545.410
223.248, 14523.810
223.731, 14476.750
224.213, 14439.350
224.695, 14417.870
225.177, 14400.760
225.659, 14372.910
226.141, 14330.690
226.623, 14285.710
227.105, 14240.520
227.587, 14195.080
228.070, 14150.980
228.552, 14111.910
229.034, 14071.280
229.516, 14017.000
229.998, 13933.470
230.480, 13863.070
230.962, 13822.200
231.444, 13820.490
231.926, 13810.680
232.409, 13796.790
232.891, 13772.630
233.373, 13722.590
233.855, 13624.310
234.337, 13536.430
234.819, 13482.850
235.301, 13479.920
235.783, 13462.070
236.266, 13425.380
236.748, 13375.630
237.230, 13324.160
237.712, 13266.750
238.194, 13213.260
238.676, 13168.210
239.158, 13133.050
239.640, 13103.080
240.122, 13082.050
240.605, 13065.440
241.087, 13040.020
241.569, 12995.910
242.051, 12956.870
242.533, 12935.950
243.015, 12946.470
243.497, 12944.380
243.980, 12923.300
244.462, 12889.590
244.944, 12863.310
245.426, 12846.170
245.908, 12833.170
246.390, 12821.100
246.872, 12806.940
247.354, 12800.330
247.836, 12807.970
248.318, 12822.600
248.801, 12816.900
249.283, 12780.620
249.765, 12738.070
250.247, 12700.690
250.729, 12664.310
251.211, 12645.850
251.693, 12657.190
252.176, 12688.430
252.658, 12693.740
253.140, 12661.430
253.622, 12621.850
254.104, 12594.040
254.586, 12586.760
255.068, 12571.110
255.550, 12540.990
256.032, 12500.850
256.514, 12470.740
256.997, 12447.580
257.479, 12439.380
257.961, 12455.260
258.443, 12509.710
258.925, 12550.120
259.407, 12567.180
259.889, 12565.300
260.371, 12569.420
260.854, 12577.990
261.336, 12594.140
261.818, 12623.100
262.300, 12671.900
262.782, 12699.380
263.264, 12635.592
263.746, 12756.170
264.228, 12831.993
264.711, 12865.468
265.193, 12729.754
265.675, 12812.513
266.157, 12807.721
266.639, 12799.336
267.121, 12912.842
267.603, 12801.737
268.085, 12913.311
268.567, 12935.995
269.050, 12938.080
269.532, 12963.820
270.014, 13049.340
270.496, 13127.610
270.978, 13188.270
271.460, 13233.640
271.942, 13271.820
272.424, 13300.180
272.906, 13328.200
273.389, 13364.430
273.871, 13410.350
274.353, 13456.100
274.835, 13500.170
275.317, 13542.530
275.799, 13581.520
276.281, 13614.840
276.763, 13651.230
277.246, 13698.920
277.728, 13758.560
278.210, 13819.150
278.692, 13881.240
279.174, 13941.220
279.656, 13985.750
280.138, 14012.060
280.620, 14034.370
281.103, 14066.280
281.585, 14107.980
282.067, 14139.020
282.549, 14149.680
283.031, 14150.790
283.513, 14183.700
283.995, 14253.460
284.477, 14316.530
284.959, 14330.790
285.441, 14299.610
285.924, 14277.250
286.406, 14274.430
286.888, 14285.510
287.370, 14295.720
287.852, 14304.970
288.334, 14318.160
288.816, 14354.120
289.298, 14404.570
289.781, 14412.290
290.263, 14354.230
290.745, 14262.370
291.227, 14203.530
291.709, 14176.720
292.191, 14160.690
292.673, 14144.140
293.155, 14126.070
293.638, 14103.390
294.120, 14076.870
294.602, 14043.960
295.084, 13994.430
295.566, 13930.350
296.048, 13872.000
296.530, 13842.140
297.012, 13828.850
297.494, 13799.030
297.977, 13740.350
298.459, 13676.060
298.941, 13645.500
299.423, 13642.270
299.905, 13630.890
300.387, 13572.900
300.869, 13494.000
301.351, 13439.300
301.833, 13419.740
302.316, 13417.030
302.798, 13416.680
303.280, 13416.810
303.762, 13411.630
304.244, 13388.660
304.726, 13360.460
305.208, 13346.350
305.690, 13353.410
306.173, 13361.440
306.655, 13303.670
307.137, 13224.210
307.619, 13126.507
308.101, 13189.322
308.583, 13213.170
309.065, 13200.149
309.547, 13039.826
310.030, 13069.715
310.512, 13023.376
310.994, 12973.910
311.476, 13030.566
311.958, 12891.667
312.440, 12946.646
312.922, 12924.230
313.404, 12937.237
313.886, 12857.700
314.369, 12851.330
314.851, 12873.760
315.333, 12884.540
315.815, 12856.890
316.297, 12822.190
316.779, 12797.110
317.261, 12784.590
317.743, 12773.130
318.225, 12759.230
318.708, 12743.930
319.190, 12728.780
319.672, 12712.270
320.154, 12697.880
320.636, 12683.900
321.118, 12668.740
321.600, 12668.010
322.082, 12711.080
322.565, 12760.300
323.047, 12776.480
323.529, 12710.160
324.011, 12652.520
324.493, 12629.040
324.975, 12642.530
325.457, 12653.990
325.939, 12650.150
326.422, 12647.340
326.904, 12658.930
327.386, 12716.400
327.868, 12754.100
328.350, 12753.800
328.832, 12716.510
329.314, 12697.890
329.796, 12715.950
330.278, 12739.050
330.760, 12744.630
331.243, 12712.480
331.725, 12696.040
332.207, 12709.580
332.689, 12746.720
333.171, 12760.650
333.653, 12732.870
334.135, 12706.220
334.617, 12709.690
335.100, 12760.830
335.582, 12798.730
336.064, 12818.190
336.546, 12822.160
337.028, 12815.290
337.510, 12788.830
337.992, 12772.110
338.474, 12787.560
338.957, 12844.330
339.439, 12880.000
339.921, 12886.900
340.403, 12875.970
340.885, 12866.320
341.367, 12855.950
341.849, 12856.780
342.331, 12880.950
342.813, 12927.840
343.296, 12962.030
343.778, 12981.140
344.260, 12992.060
344.742, 13000.130
345.224, 13006.000
345.706, 13022.060
346.188, 13069.180
346.670, 13134.790
347.152, 13155.340
347.635, 13124.690
348.117, 13088.420
348.599, 13100.580
349.081, 13152.200
349.563, 13205.880
350.045, 13248.870
350.527, 13283.830
351.009, 13310.880
351.491, 13329.760
351.974, 13351.020
352.456, 13396.310
352.938, 13449.450
353.420, 13477.590
353.902, 13452.250
354.384, 13413.730
354.866, 13407.830
355.349, 13430.540
355.831, 13453.260
356.313, 13460.870
356.795, 13457.710
357.277, 13447.150
357.759, 13422.410
358.241, 13402.980
358.723, 13408.020
359.205, 13430.600
359.688, 13447.620
360.170, 13442.510
360.652, 13431.500
361.134, 13426.520
361.616, 13433.080
362.098, 13437.560
362.580, 13437.280
363.062, 13431.020
363.544, 13416.540
364.027, 13363.140
364.509, 13325.710
364.991, 13338.580
365.473, 13430.260
365.955, 13486.100
366.437, 13465.560
366.919, 13406.590
367.401, 13359.010
367.884, 13331.090
368.366, 13311.030
368.848, 13299.230
369.330, 13297.550
369.812, 13290.950
370.294, 13271.320
370.776, 13252.470
371.258, 13247.800
371.741, 13267.410
372.223, 13283.830
372.705, 13293.920
373.187, 13297.530
373.669, 13293.530
374.151, 13277.330
374.633, 13259.960
375.115, 13248.630
375.597, 13243.990
376.079, 13243.600
376.562, 13252.910
377.044, 13262.460
377.526, 13240.230
378.008, 13179.460
378.490, 13117.160
378.972, 13070.950
379.454, 13041.620
379.936, 13031.560
380.419, 13048.860
380.901, 13067.880
381.383, 13041.780
381.865, 12973.350
382.347, 12905.270
382.829, 12856.450
383.311, 12823.450
383.793, 12797.490
384.276, 12779.600
384.758, 12760.530
385.240, 12721.560
385.722, 12672.930
386.204, 12641.990
386.686, 12656.130
387.168, 12681.970
387.650, 12677.110
388.132, 12642.980
388.615, 12602.410
389.097, 12565.570
389.579, 12532.650
390.061, 12504.560
390.543, 12487.060
391.025, 12466.400
391.507, 12426.970
391.989, 12375.590
392.471, 12334.780
392.954, 12326.590
393.436, 12324.920
393.918, 12311.620
394.400, 12279.190
394.882, 12247.460
395.364, 12225.810
395.846, 12209.160
396.328, 12188.770
396.810, 12159.760
397.293, 12129.830
397.775, 12097.500
398.257, 12057.910
398.739, 12037.730
399.221, 12066.980
399.703, 12102.410
400.185, 12102.410
400.668, 12032.340
401.150, 11973.750
401.632, 11937.780
402.114, 11923.920
402.596, 11926.500
403.078, 11956.980
403.560, 11988.440
404.042, 12002.620
404.524, 11996.400
405.007, 11983.740
405.489, 11963.990
405.971, 11939.970
406.453, 11916.870
406.935, 11893.020
407.417, 11878.120
407.899, 11881.440
408.381, 11901.650
408.863, 11914.060
409.346, 11915.480
409.828, 11916.320
410.310, 11934.380
410.792, 11967.270
411.274, 11995.580
411.756, 12002.580
412.238, 12002.330
412.720, 12030.120
413.203, 12085.920
413.685, 12140.170
414.167, 12159.900
414.649, 12160.940
415.131, 12173.830
415.613, 12216.760
416.095, 12262.350
416.577, 12284.060
417.060, 12286.460
417.542, 12289.110
418.024, 12293.800
418.506, 12308.250
418.988, 12342.210
419.470, 12407.200
419.952, 12465.080
420.434, 12491.540
420.916, 12502.250
421.398, 12523.920
421.881, 12585.780
422.363, 12640.460
422.845, 12667.860
423.327, 12663.000
423.809, 12658.530
424.291, 12654.040
424.773, 12653.910
425.255, 12662.820
425.738, 12703.390
426.220, 12721.820
426.702, 12701.770
427.184, 12651.180
427.666, 12620.330
428.148, 12625.620
428.630, 12625.270
429.112, 12586.180
429.595, 12486.500
430.077, 12440.070
430.559, 12470.360
431.041, 12532.360
431.523, 12544.480
432.005, 12502.590
432.487, 12442.290
432.969, 12368.200
433.451, 12285.340
433.934, 12228.870
434.416, 12201.720
434.898, 12180.450
435.380, 12136.920
435.862, 12078.010
436.344, 12029.220
436.826, 12002.670
437.308, 11985.220
437.790, 11963.830
438.273, 11937.150
438.755, 11897.930
439.237, 11823.430
439.719, 11741.300
440.201, 11685.140
440.683, 11666.660
441.165, 11656.050
441.647, 11643.180
442.129, 11624.000
442.612, 11591.480
443.094, 11523.860
443.576, 11458.740
444.058, 11414.790
444.540, 11394.360
445.022, 11376.940
445.504, 11362.500
445.987, 11346.790
446.469, 11326.160
446.951, 11300.850
447.433, 11270.180
447.915, 11232.100
448.397, 11188.550
448.879, 11147.400
449.361, 11105.110
449.843, 11070.280
450.326, 11049.260
450.808, 11049.250
451.290, 11035.050
451.772, 11000.330
452.254, 10959.370
452.736, 10936.120
453.218, 10932.790
453.700, 10927.720
454.182, 10913.630
454.665, 10892.020
455.147, 10840.250
455.629, 10749.650
456.111, 10695.610
456.593, 10743.496
457.075, 10766.642
457.557, 10766.374
458.039, 10672.574
458.522, 10699.552
459.004, 10678.126
459.486, 10654.717
459.968, 10698.694
460.450, 10663.420
460.932, 10641.880
461.414, 10621.960
461.896, 10594.140
462.379, 10576.540
462.861, 10594.120
463.343, 10621.890
463.825, 10632.070
464.307, 10591.240
464.789, 10557.030
465.271, 10550.760
465.753, 10568.670
466.235, 10583.800
466.717, 10593.120
467.200, 10597.360
467.682, 10595.980
468.164, 10583.700
468.646, 10576.610
469.128, 10578.210
469.610, 10582.930
470.092, 10580.600
470.574, 10565.190
471.057, 10555.850
471.539, 10555.470
472.021, 10564.430
472.503, 10596.730
472.985, 10660.120
473.467, 10718.720
473.949, 10739.060
474.431, 10723.210
474.914, 10696.830
475.396, 10656.800
475.878, 10621.990
476.360, 10632.480
476.842, 10680.640
477.324, 10725.010
477.806, 10739.440
478.288, 10738.640
478.770, 10740.940
479.253, 10747.400
479.735, 10760.010
480.217, 10783.240
480.699, 10812.720
481.181, 10842.970
481.663, 10868.810
482.145, 10898.350
482.627, 10938.570
483.109, 10985.810
483.592, 11027.260
484.074, 11039.630
484.556, 11060.200
485.038, 11110.830
485.520, 11212.870
486.002, 11292.460
486.484, 11328.520
486.966, 11349.550
487.448, 11389.270
487.931, 11462.950
488.413, 11526.760
488.895, 11572.530
489.377, 11602.300
489.859, 11623.120
490.341, 11629.430
490.823, 11646.490
491.306, 11699.100
491.788, 11786.470
492.270, 11856.740
492.752, 11905.650
493.234, 11941.150
493.716, 11966.020
494.198, 11984.210
494.680, 12013.650
495.162, 12066.990
495.645, 12132.950
496.127, 12200.820
496.609, 12269.090
497.091, 12330.110
497.573, 12368.110
498.055, 12399.930
498.537, 12443.850
499.019, 12506.690
499.501, 12574.940
499.984, 12653.560
500.466, 12732.010
500.948, 12789.860
501.430, 12795.440
501.912, 12805.140
502.394, 12840.210
502.876, 12903.800
503.358, 12964.050
503.841, 13025.680
504.323, 13078.600
504.805, 13113.320
505.287, 13112.220
505.769, 13133.300
506.251, 13183.200
506.733, 13253.740
507.215, 13335.350
507.698, 13432.500
508.180, 13511.120
508.662, 13546.020
509.144, 13547.760
509.626, 13579.860
510.108, 13645.390
510.590, 13715.810
511.072, 13768.460
511.554, 13806.330
512.036, 13834.240
512.519, 13847.500
513.001, 13863.970
513.483, 13900.900
513.965, 13955.540
514.447, 14021.380
514.929, 14101.860
515.411, 14187.490
515.893, 14276.070
516.375, 14367.890
516.858, 14447.690
517.340, 14498.820
517.822, 14541.700
518.304, 14592.930
518.786, 14656.440
519.268, 14726.330
519.750, 14805.610
520.232, 14889.990
520.715, 14969.030
521.197, 15044.690
521.679, 15111.070
522.161, 15159.480
522.643, 15189.200
523.125, 15250.300
523.607, 15352.640
524.089, 15457.270
524.571, 15521.000
525.054, 15548.130
525.536, 15584.440
526.018, 15642.330
526.500, 15703.360
526.982, 15732.310
527.464, 15737.510
527.946, 15753.180
528.429, 15810.600
528.911, 15880.360
529.393, 15931.370
529.875, 15962.410
530.357, 15980.460
530.839, 15990.700
531.321, 15989.370
531.803, 15971.790
532.286, 15919.990
532.768, 15877.400
533.250, 15868.790
533.732, 15875.970
534.214, 15858.450
534.696, 15787.040
535.178, 15721.700
535.660, 15681.740
536.142, 15668.310
536.625, 15640.210
537.107, 15598.380
537.589, 15540.930
538.071, 15455.390
538.553, 15337.340
539.035, 15259.340
539.517, 15239.860
539.999, 15240.300
540.481, 15190.150
540.964, 15096.800
541.446, 15015.680
541.928, 14986.420
542.410, 14975.420
542.892, 14922.710
543.374, 14833.260
543.856, 14750.350
544.338, 14716.800
544.820, 14697.790
545.303, 14658.410
545.785, 14587.120
546.267, 14509.730
546.749, 14434.730
547.231, 14360.960
547.713, 14286.780
548.195, 14199.660
548.677, 14126.090
549.159, 14081.360
549.642, 14060.050
550.124, 14016.490
550.606, 13936.440
551.088, 13856.710
551.570, 13799.940
552.052, 13772.490
552.534, 13729.920
553.016, 13668.390
553.499, 13600.330
553.981, 13542.400
554.463, 13492.980
554.945, 13439.430
555.427, 13376.350
555.909, 13309.840
556.391, 13246.330
556.873, 13186.660
557.356, 13136.180
557.838, 13110.890
558.320, 13087.870
558.802, 13043.650
559.284, 12975.210
559.766, 12903.570
560.248, 12833.980
560.730, 12767.830
561.213, 12707.900
561.695, 12655.580
562.177, 12606.870
562.659, 12562.040
563.141, 12520.460
563.623, 12480.690
564.105, 12445.350
564.587, 12406.430
565.069, 12360.310
565.552, 12306.880
566.034, 12257.750
566.516, 12214.360
566.998, 12168.060
567.480, 12105.570
567.962, 12030.730
568.444, 11979.340
568.926, 11960.300
569.408, 11946.040
569.891, 11892.250
570.373, 11816.050
570.855, 11757.810
571.337, 11744.620
571.819, 11748.130
572.301, 11768.310
572.783, 11793.900
573.265, 11772.820
573.747, 11639.800
574.230, 11488.370
574.712, 11368.290
575.194, 11294.040
575.676, 11222.170
576.158, 11137.780
576.640, 11060.620
577.122, 11011.530
577.604, 11006.370
578.086, 10990.210
578.569, 10956.380
579.051, 10908.720
579.533, 10852.120
580.015, 10784.850
580.497, 10729.400
580.979, 10705.490
581.461, 10699.940
581.943, 10665.330
582.426, 10602.670
582.908, 10545.330
583.390, 10527.310
583.872, 10529.150
584.354, 10523.710
584.836, 10504.990
585.318, 10481.430
585.800, 10454.520
586.282, 10426.460
586.765, 10400.790
587.247, 10381.260
587.729, 10361.050
588.211, 10344.830
588.693, 10328.750
589.175, 10290.240
589.657, 10212.620
590.140, 10135.790
590.622, 10073.010
591.104, 10023.850
591.586, 9998.812
592.068, 10004.830
592.550, 10015.230
593.032, 9998.410
593.514, 9959.435
593.996, 9935.394
594.479, 9935.431
594.961, 9945.591
595.443, 9955.095
595.925, 9960.610
596.407, 9952.933
596.889, 9909.734
597.371, 9866.667
597.853, 9852.709
598.335, 9864.280
598.818, 9875.065
599.300, 9877.787
599.782, 9874.926
600.264, 9867.279
600.746, 9853.618
601.228, 9837.996
601.710, 9812.002
602.192, 9791.086
602.674, 9793.195
603.157, 9827.658
603.639, 9850.422
604.121, 9850.436
604.603, 9841.896
605.085, 9857.931
605.567, 9897.611
606.049, 9936.859
606.531, 9972.107
607.013, 9996.787
607.496, 9991.022
607.978, 9958.097
608.460, 9930.156
608.942, 9922.044
609.424, 9932.584
609.906, 9969.279
610.388, 10045.480
610.870, 10097.500
611.353, 10074.490
611.835, 10029.430
612.317, 10018.200
612.799, 10073.260
613.281, 10127.660
613.763, 10183.640
614.245, 10234.550
614.727, 10259.340
615.209, 10248.210
615.692, 10246.600
616.174, 10276.120
616.656, 10329.160
617.138, 10364.980
617.620, 10383.360
618.102, 10400.870
618.584, 10428.700
619.067, 10465.050
619.549, 10507.720
620.031, 10557.370
620.513, 10606.820
620.995, 10650.020
621.477, 10690.720
621.959, 10733.630
622.441, 10779.700
622.923, 10828.300
623.406, 10878.390
623.888, 10930.480
624.370, 10985.580
624.852, 11044.750
625.334, 11105.060
625.816, 11166.610
626.298, 11228.950
626.780, 11288.050
627.263, 11344.190
627.745, 11396.730
628.227, 11445.120
628.709, 11489.940
629.191, 11531.030
629.673, 11567.460
630.155, 11610.400
630.637, 11680.610
631.119, 11762.030
631.602, 11827.740
632.084, 11858.830
632.566, 11895.440
633.048, 11974.570
633.530, 12072.280
634.012, 12145.160
634.494, 12154.530
634.976, 12168.620
635.458, 12211.790
635.941, 12277.140
636.423, 12314.630
636.905, 12298.340
637.387, 12305.490
637.869, 12388.550
638.351, 12547.250
638.833, 12648.280
639.315, 12685.680
639.797, 12703.500
640.280, 12741.730
640.762, 12792.040
641.244, 12831.870
641.726, 12854.380
642.208, 12875.800
642.690, 12904.190
643.172, 12941.880
643.654, 12992.390
644.137, 13069.670
644.619, 13146.610
645.101, 13216.510
645.583, 13279.720
646.065, 13334.130
646.547, 13373.570
647.029, 13413.770
647.511, 13461.490
647.994, 13515.900
648.476, 13560.100
648.958, 13590.540
649.440, 13624.120
649.922, 13666.920
650.404, 13721.830
650.886, 13815.880
651.368, 13957.440
651.851, 14085.910
652.333, 14128.180
652.815, 14122.970
653.297, 14129.550
653.779, 14169.130
654.261, 14214.910
654.743, 14260.450
655.225, 14302.380
655.707, 14334.720
656.190, 14349.320
656.672, 14362.850
657.154, 14379.910
657.636, 14398.890
658.118, 14412.180
658.600, 14420.500
659.082, 14420.530
659.564, 14406.010
660.046, 14379.840
660.529, 14369.240
661.011, 14375.010
661.493, 14377.640
661.975, 14368.530
662.457, 14343.170
662.939, 14287.610
663.421, 14194.970
663.903, 14103.890
664.385, 14037.820
664.868, 13988.200
665.350, 13945.450
665.832, 13920.970
666.314, 13887.040
666.796, 13823.240
667.278, 13751.510
667.760, 13712.810
668.242, 13722.110
668.724, 13728.720
669.207, 13720.080
669.689, 13698.760
670.171, 13674.090
670.653, 13645.380
671.135, 13617.490
671.617, 13586.030
672.099, 13559.410
672.581, 13563.830
673.064, 13597.590
673.546, 13617.770
674.028, 13579.200
674.510, 13526.250
674.992, 13496.760
675.474, 13503.460
675.956, 13513.920
676.438, 13528.880
676.920, 13541.330
677.403, 13545.530
677.885, 13542.320
678.367, 13528.250
678.849, 13495.990
679.331, 13461.490
679.813, 13459.840
680.295, 13489.890
680.778, 13502.350
681.260, 13478.040
681.742, 13430.620
682.224, 13370.960
682.706, 13304.140
683.188, 13247.740
683.670, 13227.030
684.152, 13207.520
684.634, 13168.960
685.117, 13110.330
685.599, 13033.550
686.081, 12924.210
686.563, 12809.740
687.045, 12699.840
687.527, 12590.380
688.009, 12515.990
688.491, 12492.340
688.973, 12474.770
689.456, 12420.070
689.938, 12331.360
690.420, 12249.580
690.902, 12178.450
691.384, 12118.860
691.866, 12082.860
692.348, 12058.350
692.830, 12019.680
693.312, 11942.560
693.795, 11874.320
694.277, 11844.950
694.759, 11842.510
695.241, 11844.170
695.723, 11841.480
696.205, 11847.020
696.687, 11871.750
697.169, 11907.120
697.652, 11915.620
698.134, 11891.680
698.616, 11859.470
699.098, 11818.620
699.580, 11778.390
700.062, 11788.160
700.544, 11847.180
701.026, 11912.810
701.508, 11959.660
701.991, 11993.390
702.473, 12013.920
702.955, 12019.360
703.437, 12041.340
703.919, 12111.890
704.401, 12195.440
704.883, 12263.560
705.365, 12311.080
705.847, 12341.700
706.330, 12338.890
706.812, 12334.080
707.294, 12363.350
707.776, 12429.350
708.258, 12518.050
708.740, 12637.490
709.222, 12755.880
709.705, 12810.970
710.187, 12818.120
710.669, 12833.200
711.151, 12883.500
711.633, 12944.850
712.115, 12993.280
712.597, 13035.560
713.079, 13091.220
713.561, 13190.800
714.044, 13280.410
714.526, 13335.670
715.008, 13360.040
715.490, 13386.900
715.972, 13412.310
716.454, 13447.620
716.936, 13500.850
717.418, 13569.960
717.901, 13640.260
718.383, 13711.330
718.865, 13779.090
719.347, 13843.260
719.829, 13900.380
720.311, 13929.050
720.793, 13921.250
721.275, 13951.260
721.757, 14128.340
722.240, 14325.860
722.722, 14427.030
723.204, 14351.860
723.686, 14284.850
724.168, 14221.130
724.650, 14181.540
725.132, 14205.160
725.614, 14309.160
726.096, 14368.330
726.579, 14350.100
727.061, 14305.030
727.543, 14327.880
728.025, 14399.110
728.507, 14444.830
728.989, 14423.240
729.471, 14382.910
729.953, 14356.680
730.435, 14343.700
730.918, 14341.310
731.400, 14359.350
731.882, 14377.030
732.364, 14392.870
732.846, 14404.620
733.328, 14395.540
733.810, 14357.620
734.292, 14317.740
734.775, 14285.900
735.257, 14261.240
735.739, 14240.850
736.221, 14224.430
736.703, 14209.820
737.185, 14200.220
737.667, 14189.080
738.149, 14168.850
738.631, 14139.030
739.114, 14098.910
739.596, 14045.970
740.078, 13985.110
740.560, 13917.660
741.042, 13836.330
741.524, 13771.260
742.006, 13730.230
742.489, 13697.120
742.971, 13659.250
743.453, 13616.950
743.935, 13567.760
744.417, 13509.760
744.899, 13449.370
745.381, 13394.310
745.863, 13341.360
746.345, 13282.200
746.828, 13208.390
747.310, 13141.010
747.792, 13102.180
748.274, 13074.180
748.756, 13031.370
749.238, 12954.030
749.720, 12879.250
750.202, 12813.440
750.684, 12752.600
751.167, 12692.420
751.649, 12634.310
752.131, 12565.530
752.613, 12473.120
753.095, 12379.980
753.577, 12344.270
754.059, 12354.620
754.541, 12363.500
755.023, 12350.320
755.506, 12323.100
755.988, 12278.900
756.470, 12222.680
756.952, 12176.130
757.434, 12151.740
757.916, 12130.610
758.398, 12104.390
758.880, 12073.790
759.362, 12057.450
759.845, 12059.940
760.327, 12059.390
760.809, 12041.550
761.291, 12010.900
761.773, 11981.470
762.255, 11954.230
762.737, 11931.570
763.219, 11913.230
763.702, 11902.080
764.184, 11902.260
764.666, 11915.220
765.148, 11930.830
765.630, 11945.270
766.112, 11962.330
766.594, 11986.330
767.076, 12023.280
767.558, 12037.620
768.041, 12019.700
768.523, 12001.400
769.005, 12024.150
769.487, 12075.850
769.969, 12095.080
770.451, 12069.390
770.933, 12041.970
771.416, 12054.000
771.898, 12085.650
772.380, 12114.230
772.862, 12139.880
773.344, 12151.210
773.826, 12131.860
774.308, 12103.880
774.790, 12093.270
775.272, 12111.320
775.755, 12113.910
776.237, 12092.770
776.719, 12063.200
777.201, 12051.250
777.683, 12053.320
778.165, 12048.720
778.647, 12027.770
779.129, 12006.840
779.612, 12017.410
780.094, 12036.230
780.576, 12022.460
781.058, 11909.160
781.540, 11822.600
782.022, 11811.490
782.504, 11843.100
782.986, 11858.940
783.468, 11856.160
783.951, 11845.530
784.433, 11829.440
784.915, 11806.900
785.397, 11773.270
785.879, 11730.610
786.361, 11688.640
786.843, 11657.170
787.325, 11624.730
787.807, 11572.110
788.290, 11509.700
788.772, 11467.330
789.254, 11481.260
789.736, 11489.130
790.218, 11470.590
790.700, 11430.890
791.182, 11393.010
791.664, 11356.150
792.146, 11325.050
792.629, 11304.150
793.111, 11289.420
793.593, 11268.190
794.075, 11241.450
794.557, 11215.600
795.039, 11207.560
795.521, 11191.730
796.003, 11141.610
796.485, 11060.130
796.968, 10984.990
797.450, 10911.110
797.932, 10861.700
798.414, 10852.900
798.896, 10882.420
799.378, 10891.460
799.860, 10878.130
800.343, 10856.420
800.825, 10838.160
801.307, 10817.490
801.789, 10770.370
802.271, 10700.110
802.753, 10648.220
803.235, 10657.490
803.717, 10681.480
804.199, 10689.100
804.682, 10676.570
805.164, 10659.470
805.646, 10640.460
806.128, 10615.820
806.610, 10580.820
807.092, 10535.240
807.574, 10502.910
808.056, 10485.210
808.539, 10466.030
809.021, 10424.640
809.503, 10376.500
809.985, 10346.770
810.467, 10337.390
810.949, 10337.640
811.431, 10353.660
811.913, 10368.470
812.395, 10371.050
812.878, 10359.820
813.360, 10338.170
813.842, 10300.340
814.324, 10262.090
814.806, 10236.710
815.288, 10222.560
815.770, 10202.420
816.252, 10175.660
816.734, 10148.750
817.217, 10133.450
817.699, 10118.110
818.181, 10084.330
818.663, 10026.020
819.145, 9980.900
819.627, 9975.971
820.109, 9978.634
820.591, 9967.105
821.073, 9936.085
821.556, 9917.036
822.038, 9911.345
822.520, 9913.690
823.002, 9926.021
823.484, 9942.757
823.966, 9943.647
824.448, 9926.646
824.930, 9903.002
825.413, 9873.018
825.895, 9844.905
826.377, 9826.832
826.859, 9823.478
827.341, 9816.689
827.823, 9802.283
828.305, 9786.318
828.787, 9770.294
829.269, 9752.880
829.752, 9756.623
830.234, 9786.181
830.716, 9807.074
831.198, 9773.921
831.680, 9715.365
832.162, 9675.373
832.644, 9659.563
833.127, 9661.375
833.609, 9701.686
834.091, 9741.761
834.573, 9747.341
835.055, 9706.144
835.537, 9680.275
836.019, 9672.908
836.501, 9674.586
836.983, 9681.092
837.466, 9690.718
837.948, 9691.526
838.430, 9682.311
838.912, 9675.298
839.394, 9684.018
839.876, 9697.542
840.358, 9704.777
840.840, 9702.985
841.322, 9701.445
841.805, 9700.373
842.287, 9701.622
842.769, 9706.113
843.251, 9713.792
843.733, 9726.159
844.215, 9743.858
844.697, 9761.356
845.179, 9773.755
845.661, 9782.617
846.144, 9789.674
846.626, 9795.007
847.108, 9802.046
847.590, 9813.609
848.072, 9826.569
848.554, 9839.732
849.036, 9853.845
849.518, 9861.614
850.000, 9859.357
850.483, 9859.007
850.965, 9870.003
851.447, 9890.317
851.929, 9911.323
852.411, 9932.803
852.893, 9947.456
853.375, 9942.436
853.857, 9933.563
854.340, 9933.895
854.822, 9944.836
855.304, 9962.846
855.786, 10001.360
856.268, 10030.670
856.750, 10033.230
857.232, 10010.050
857.714, 10003.010
858.196, 10012.390
858.679, 10032.090
859.161, 10069.210
859.643, 10108.270
860.125, 10121.090
860.607, 10110.370
861.089, 10105.230
861.571, 10112.500
862.054, 10134.610
862.536, 10185.140
863.018, 10258.490
863.500, 10296.210
863.982, 10287.100
864.464, 10278.810
864.946, 10299.120
865.428, 10334.300
865.910, 10338.160
866.393, 10317.240
866.875, 10307.310
867.357, 10336.360
867.839, 10376.450
868.321, 10415.500
868.803, 10451.530
869.285, 10475.420
869.767, 10482.060
870.250, 10485.910
870.732, 10489.660
871.214, 10494.280
871.696, 10503.930
872.178, 10518.340
872.660, 10530.870
873.142, 10534.390
873.624, 10539.490
874.106, 10559.050
874.589, 10588.440
875.071, 10616.260
875.553, 10633.860
876.035, 10655.740
876.517, 10688.180
876.999, 10724.210
877.481, 10749.070
877.963, 10762.470
878.445, 10766.990
878.928, 10760.200
879.410, 10751.280
879.892, 10748.040
880.374, 10753.540
880.856, 10775.020
881.338, 10837.690
881.820, 10884.690
882.302, 10880.110
882.784, 10856.310
883.267, 10859.050
883.749, 10897.840
884.231, 10933.060
884.713, 10961.350
885.195, 10982.550
885.677, 10990.050
886.159, 10990.520
886.641, 11001.460
887.123, 11027.590
887.606, 11060.710
888.088, 11105.380
888.570, 11148.560
889.052, 11175.500
889.534, 11174.510
890.016, 11183.170
890.498, 11200.860
890.981, 11229.810
891.463, 11283.180
891.945, 11351.340
892.427, 11386.860
892.909, 11384.960
893.391, 11385.060
893.873, 11415.980
894.355, 11462.720
894.837, 11518.120
895.320, 11585.220
895.802, 11626.060
896.284, 11627.240
896.766, 11619.840
897.248, 11614.210
897.730, 11612.410
898.212, 11642.750
898.694, 11704.890
899.177, 11767.470
899.659, 11823.680
900.141, 11861.970
900.623, 11858.600
901.105, 11821.010
901.587, 11804.670
902.069, 11834.560
902.551, 11877.500
903.033, 11931.610
903.516, 11990.900
903.998, 12026.490
904.480, 12038.640
904.962, 12051.080
905.444, 12069.240
905.926, 12097.740
906.408, 12151.170
906.890, 12218.170
907.372, 12274.910
907.855, 12302.610
908.337, 12330.740
908.819, 12367.010
909.301, 12406.510
909.783, 12441.740
910.265, 12472.630
910.747, 12499.070
911.229, 12519.820
911.711, 12540.740
912.194, 12566.580
912.676, 12598.610
913.158, 12639.760
913.640, 12696.780
914.122, 12749.520
914.604, 12803.370
915.086, 12841.810
915.568, 12847.900
916.050, 12815.550
916.533, 12776.750
917.015, 12728.250
917.497, 12696.600
917.979, 12728.620
918.461, 12787.620
918.943, 12808.460
919.425, 12783.070
919.907, 12757.740
920.390, 12757.940
920.872, 12760.490
921.354, 12747.920
921.836, 12719.780
922.318, 12715.710
922.800, 12738.080
923.282, 12770.650
923.765, 12817.730
924.247, 12861.660
924.729, 12858.170
925.211, 12816.060
925.693, 12778.640
926.175, 12769.860
926.657, 12765.010
927.139, 12748.700
927.621, 12728.280
928.104, 12731.410
928.586, 12768.100
929.068, 12780.230
929.550, 12742.160
930.032, 12689.970
930.514, 12684.930
930.996, 12714.190
931.478, 12749.280
931.960, 12793.220
932.443, 12821.740
932.925, 12819.180
933.407, 12799.400
933.889, 12778.060
934.371, 12752.710
934.853, 12736.010
935.335, 12729.300
935.817, 12729.510
936.299, 12740.940
936.782, 12754.670
937.264, 12749.950
937.746, 12721.810
938.228, 12698.240
938.710, 12696.230
939.192, 12700.020
939.674, 12698.610
940.156, 12691.080
940.638, 12693.120
941.121, 12706.670
941.603, 12719.150
942.085, 12720.460
942.567, 12716.500
943.049, 12723.080
943.531, 12736.090
944.013, 12736.960
944.495, 12698.630
944.978, 12666.220
945.460, 12668.860
945.942, 12688.750
946.424, 12672.500
946.906, 12611.720
947.388, 12569.710
947.870, 12567.580
948.352, 12582.940
948.834, 12587.580
949.317, 12584.290
949.799, 12577.970
950.281, 12568.230
950.763, 12559.180
951.245, 12551.390
951.727, 12545.270
952.209, 12542.630
952.692, 12544.650
953.174, 12539.110
953.656, 12524.610
954.138, 12507.040
954.620, 12493.000
955.102, 12478.600
955.584, 12456.770
956.066, 12426.640
956.548, 12400.500
957.031, 12378.500
957.513, 12366.760
957.995, 12371.060
958.477, 12389.000
958.959, 12403.560
959.441, 12414.980
959.923, 12407.590
960.405, 12357.010
960.888, 12298.650
961.370, 12277.000
961.852, 12280.100
962.334, 12277.680
962.816, 12254.080
963.298, 12232.560
963.780, 12217.070
964.262, 12204.260
964.744, 12186.160
965.227, 12163.780
965.709, 12157.940
966.191, 12177.550
966.673, 12189.320
967.155, 12150.160
967.637, 12093.350
968.119, 12054.010
968.601, 12039.980
969.083, 12038.840
969.566, 12059.470
970.048, 12076.220
970.530, 12067.630
971.012, 12039.310
971.494, 12030.150
971.976, 12038.070
972.458, 12040.580
972.940, 12015.820
973.422, 11987.630
973.905, 11971.260
974.387, 11965.900
974.869, 11962.380
975.351, 11961.700
975.833, 11957.610
976.315, 11943.710
976.797, 11933.260
977.279, 11965.730
977.761, 12022.930
978.244, 12050.830
978.726, 12023.390
979.208, 11989.820
979.690, 11964.710
980.172, 11952.990
980.654, 11959.380
981.136, 11987.280
981.619, 12026.090
982.101, 12081.430
982.583, 12119.890
983.065, 12094.100
983.547, 12040.590
984.029, 12028.560
984.511, 12056.820
984.993, 12075.250
985.475, 12049.980
985.958, 12023.780
986.440, 12010.870
986.922, 12010.390
987.404, 12020.700
987.886, 12042.160
988.368, 12065.860
988.850, 12090.940
989.332, 12112.430
989.815, 12121.110
990.297, 12123.420
990.779, 12129.750
991.261, 12149.620
991.743, 12162.500
992.225, 12163.690
992.707, 12162.240
993.189, 12164.960
993.671, 12172.370
994.154, 12190.550
994.636, 12219.920
995.118, 12250.950
995.600, 12276.460
996.082, 12300.430
996.564, 12325.850
997.046, 12352.670
997.528, 12379.570
998.010, 12412.790
998.493, 12428.000
998.975, 12407.950
999.457, 12374.500
999.939, 12380.300
1000.421, 12415.050
1000.903, 12449.600
1001.385, 12472.570
1001.867, 12493.000
1002.349, 12512.340
1002.832, 12532.090
1003.314, 12553.570
1003.796, 12577.060
1004.278, 12605.230
1004.760, 12641.220
1005.242, 12664.270
1005.724, 12639.180
1006.206, 12598.650
1006.689, 12587.260
1007.171, 12608.020
1007.653, 12634.590
1008.135, 12678.620
1008.617, 12702.580
1009.099, 12687.740
1009.581, 12647.140
1010.063, 12626.710
1010.545, 12624.950
1011.028, 12631.310
1011.510, 12652.020
1011.992, 12661.180
1012.474, 12612.220
1012.956, 12547.910
1013.438, 12533.550
1013.920, 12625.240
1014.402, 12661.660
1014.885, 12629.410
1015.367, 12572.020
1015.849, 12522.300
1016.331, 12481.250
1016.813, 12458.510
1017.295, 12453.010
1017.777, 12442.480
1018.259, 12407.490
1018.741, 12372.810
1019.224, 12349.330
1019.706, 12336.140
1020.188, 12334.170
1020.670, 12344.890
1021.152, 12348.440
1021.634, 12342.510
1022.116, 12318.310
1022.598, 12236.700
1023.081, 12140.070
1023.563, 12095.690
1024.045, 12165.260
1024.527, 12191.540
1025.009, 12142.290
1025.491, 12081.260
1025.973, 12067.300
1026.455, 12089.580
1026.938, 12077.480
1027.420, 12031.780
1027.902, 11980.760
1028.384, 11938.960
1028.866, 11900.370
1029.348, 11860.550
1029.830, 11821.100
1030.312, 11791.020
1030.794, 11773.700
1031.276, 11750.460
1031.759, 11715.000
1032.241, 11678.070
1032.723, 11654.140
1033.205, 11639.930
1033.687, 11633.580
1034.169, 11644.930
1034.651, 11628.990
1035.133, 11548.720
1035.616, 11468.060
1036.098, 11423.970
1036.580, 11413.740
1037.062, 11407.090
1037.544, 11403.150
1038.026, 11394.770
1038.508, 11373.160
1038.990, 11348.990
1039.473, 11329.260
1039.955, 11312.380
1040.437, 11294.180
1040.919, 11276.750
1041.401, 11249.740
1041.883, 11208.210
1042.365, 11168.180
1042.847, 11155.110
1043.329, 11156.270
1043.812, 11148.100
1044.294, 11127.050
1044.776, 11100.610
1045.258, 11066.800
1045.740, 11034.250
1046.222, 11007.770
1046.704, 10986.290
1047.186, 10961.580
1047.668, 10934.050
1048.151, 10907.620
1048.633, 10877.450
1049.115, 10858.480
1049.597, 10878.380
1050.079, 10912.530
1050.561, 10918.400
1051.043, 10874.130
1051.525, 10850.740
1052.008, 10855.830
1052.490, 10864.210
1052.972, 10850.410
1053.454, 10823.010
1053.936, 10794.850
1054.418, 10767.630
1054.900, 10749.410
1055.382, 10756.220
1055.865, 10756.900
1056.347, 10738.300
1056.829, 10707.970
1057.311, 10686.940
1057.793, 10674.200
1058.275, 10658.250
1058.757, 10632.410
1059.239, 10614.520
1059.721, 10636.560
1060.203, 10664.700
1060.686, 10658.840
1061.168, 10606.670
1061.650, 10574.990
1062.132, 10569.750
1062.614, 10563.570
1063.096, 10537.350
1063.578, 10499.970
1064.060, 10456.990
1064.543, 10415.260
1065.025, 10395.480
1065.507, 10433.920
1065.989, 10457.670
1066.471, 10454.470
1066.953, 10431.240
1067.435, 10390.970
1067.917, 10337.130
1068.400, 10295.260
1068.882, 10268.540
1069.364, 10253.170
1069.846, 10249.760
1070.328, 10254.160
1070.810, 10266.210
1071.292, 10284.340
1071.774, 10301.260
1072.256, 10318.100
1072.739, 10324.350
1073.221, 10314.940
1073.703, 10295.380
1074.185, 10265.760
1074.667, 10233.820
1075.149, 10213.160
1075.631, 10215.400
1076.113, 10208.330
1076.596, 10187.150
1077.078, 10161.380
1077.560, 10139.320
1078.042, 10118.870
1078.524, 10084.470
1079.006, 10041.170
1079.488, 10014.920
1079.970, 10038.670
1080.453, 10061.960
1080.935, 10065.680
1081.417, 10054.660
1081.899, 10029.320
1082.381, 9988.447
1082.863, 9971.861
1083.345, 9987.224
1083.827, 10005.720
1084.309, 10002.630
1084.792, 9988.301
1085.274, 9966.242
1085.756, 9937.289
1086.238, 9931.615
1086.720, 9963.859
1087.202, 9974.794
1087.684, 9936.490
1088.166, 9877.480
1088.648, 9847.397
1089.131, 9836.146
1089.613, 9823.418
1090.095, 9803.090
1090.577, 9782.185
1091.059, 9759.406
1091.541, 9740.384
1092.023, 9732.671
1092.505, 9733.799
1092.988, 9720.660
1093.470, 9694.646
1093.952, 9664.990
1094.434, 9627.359
1094.916, 9597.580
1095.398, 9581.359
1095.880, 9580.033
1096.362, 9603.083
1096.844, 9659.245
1097.327, 9665.636
1097.809, 9608.502
1098.291, 9544.763
1098.773, 9531.934
1099.255, 9538.484
1099.737, 9537.218
1100.219, 9525.116
1100.701, 9498.649
1101.183, 9450.455
1101.666, 9408.610
1102.148, 9382.652
1102.630, 9365.323
1103.112, 9347.117
1103.594, 9327.397
1104.076, 9301.638
1104.558, 9261.399
1105.040, 9241.676
1105.523, 9269.476
1106.005, 9296.951
1106.487, 9297.364
1106.969, 9275.351
1107.451, 9253.720
1107.933, 9233.406
1108.415, 9217.689
1108.897, 9215.025
1109.380, 9209.924
1109.862, 9195.068
1110.344, 9173.759
1110.826, 9148.187
1111.308, 9116.754
1111.790, 9101.843
1112.272, 9105.593
1112.754, 9106.840
1113.236, 9082.415
1113.719, 9053.345
1114.201, 9039.826
1114.683, 9038.904
1115.165, 9031.512
1115.647, 9013.081
1116.129, 9001.415
1116.611, 9002.045
1117.093, 9003.281
1117.575, 8985.930
1118.058, 8960.914
1118.540, 8945.127
1119.022, 8942.287
1119.504, 8932.896
1119.986, 8866.240
1120.468, 8767.051
1120.950, 8878.170
1121.432, 8938.237
1121.915, 8949.986
1122.397, 8768.756
1122.879, 8836.733
1123.361, 8804.840
1123.843, 8768.851
1124.325, 8871.904
1124.807, 8718.742
1125.289, 8819.592
1125.771, 8819.044
1126.254, 8794.982
1126.736, 8815.457
1127.218, 8836.077
1127.700, 8812.757
1128.182, 8791.441
1128.664, 8803.651
1129.146, 8831.901
1129.628, 8847.303
1130.110, 8847.567
1130.593, 8849.198
1131.075, 8853.400
1131.557, 8854.083
1132.039, 8844.152
1132.521, 8829.796
1133.003, 8810.861
1133.485, 8791.426
1133.967, 8793.922
1134.450, 8830.472
1134.932, 8848.999
1135.414, 8837.479
1135.896, 8812.515
1136.378, 8787.332
1136.860, 8766.376
1137.342, 8758.652
1137.824, 8766.998
1138.307, 8768.035
1138.789, 8755.387
1139.271, 8742.601
1139.753, 8731.518
1140.235, 8726.431
1140.717, 8745.983
1141.199, 8777.672
1141.681, 8790.258
1142.163, 8766.229
1142.646, 8746.885
1143.128, 8749.459
1143.610, 8750.342
1144.092, 8731.718
1144.574, 8699.615
1145.056, 8689.396
1145.538, 8696.925
1146.020, 8703.407
1146.502, 8699.769
1146.985, 8694.095
1147.467, 8689.887
1147.949, 8685.510
1148.431, 8677.346
1148.913, 8665.729
1149.395, 8666.648
1149.877, 8680.098
1150.359, 8692.882
1150.842, 8689.830
1151.324, 8689.218
1151.806, 8711.681
1152.288, 8702.434
1152.770, 8741.495
1153.252, 8706.092
1153.734, 8690.619
1154.216, 8703.301
1154.698, 8718.463
1155.181, 8708.968
1155.663, 8694.177
1156.145, 8693.563
1156.627, 8705.971
1157.109, 8705.523
1157.591, 8686.819
1158.073, 8684.163
1158.555, 8710.080
1159.037, 8741.689
1159.520, 8752.345
1160.002, 8752.515
1160.484, 8754.974
1160.966, 8762.201
1161.448, 8764.164
1161.930, 8760.052
1162.412, 8751.981
1162.894, 8740.528
1163.377, 8725.703
1163.859, 8697.858
1164.341, 8669.326
1164.823, 8664.897
1165.305, 8708.835
1165.787, 8725.624
1166.269, 8699.413
1166.751, 8671.144
1167.234, 8669.048
1167.716, 8680.804
1168.198, 8669.062
1168.680, 8645.603
1169.162, 8641.989
1169.644, 8700.172
1170.126, 8734.540
1170.608, 8729.854
1171.090, 8710.041
1171.573, 8686.969
1172.055, 8666.443
1172.537, 8674.988
1173.019, 8708.426
1173.501, 8741.737
1173.983, 8777.496
1174.465, 8789.536
1174.947, 8758.195
1175.430, 8718.429
1175.912, 8720.608
1176.394, 8755.666
1176.876, 8781.104
1177.358, 8793.691
1177.840, 8798.397
1178.322, 8795.137
1178.804, 8787.715
1179.286, 8776.284
1179.769, 8763.322
1180.251, 8750.681
1180.733, 8740.040
1181.215, 8746.275
1181.697, 8773.047
1182.179, 8797.670
1182.661, 8804.064
1183.143, 8806.030
1183.625, 8814.614
1184.108, 8824.444
1184.590, 8809.614
1185.072, 8773.480
1185.554, 8756.291
1186.036, 8773.157
1186.518, 8788.136
1187.000, 8766.017
1187.482, 8740.513
1187.965, 8738.409
1188.447, 8757.120
1188.929, 8772.304
1189.411, 8784.079
1189.893, 8791.394
1190.375, 8793.197
1190.857, 8792.638
1191.339, 8788.366
1191.822, 8786.014
1192.304, 8792.640
1192.786, 8808.778
1193.268, 8819.274
1193.750, 8824.104
1194.232, 8819.737
1194.714, 8799.424
1195.196, 8775.848
1195.678, 8752.005
1196.161, 8734.650
1196.643, 8733.389
1197.125, 8752.037
1197.607, 8761.811
1198.089, 8762.145
1198.571, 8766.270
1199.053, 8795.741
1199.535, 8820.027
1200.017, 8802.505
1200.500, 8820.919
1200.982, 8819.281
1201.464, 8804.625
1201.946, 8806.254
1202.428, 8761.318
1202.910, 8724.297
1203.392, 8749.160
1203.874, 8787.893
1204.357, 8798.850
1204.839, 8790.154
1205.321, 8789.714
1205.803, 8801.427
1206.285, 8799.193
1206.767, 8777.458
1207.249, 8765.930
1207.731, 8810.113
1208.214, 8859.875
1208.696, 8864.870
1209.178, 8833.514
1209.660, 8816.971
1210.142, 8816.694
1210.624, 8828.700
1211.106, 8854.554
1211.588, 8877.850
1212.070, 8882.975
1212.552, 8876.983
1213.035, 8859.277
1213.517, 8834.004
1213.999, 8830.701
1214.481, 8853.396
1214.963, 8872.324
1215.445, 8880.850
1215.927, 8885.483
1216.409, 8845.426
1216.892, 8891.769
1217.374, 8917.141
1217.856, 8922.666
1218.338, 8848.903
1218.820, 8877.525
1219.302, 8865.116
1219.784, 8851.024
1220.266, 8894.057
1220.749, 8831.823
1221.231, 8873.949
1221.713, 8874.418
1222.195, 8893.952
1222.677, 8872.202
1223.159, 8862.117
1223.641, 8865.813
1224.123, 8873.259
1224.605, 8884.227
1225.088, 8902.284
1225.570, 8921.014
1226.052, 8934.947
1226.534, 8944.509
1227.016, 8932.431
1227.498, 8896.659
1227.980, 8879.001
1228.462, 8907.470
1228.944, 8942.961
1229.427, 8952.094
1229.909, 8947.365
1230.391, 8941.401
1230.873, 8934.192
1231.355, 8935.479
1231.837, 8945.374
1232.319, 8964.102
1232.801, 9004.375
1233.284, 9035.624
1233.766, 9024.430
1234.248, 8995.377
1234.730, 8975.065
1235.212, 8962.763
1235.694, 8977.000
1236.176, 9016.752
1236.658, 9051.669
1237.141, 9067.856
1237.623, 9068.886
1238.105, 9050.979
1238.587, 9022.044
1239.069, 8987.755
1239.551, 8945.566
1240.033, 8943.866
1240.515, 8980.387
1240.997, 9014.409
1241.479, 9020.181
1241.962, 9017.622
1242.444, 9011.960
1242.926, 9008.044
1243.408, 9013.561
1243.890, 9028.354
1244.372, 9031.267
1244.854, 9023.313
1245.336, 9021.446
1245.819, 9044.278
1246.301, 9065.015
1246.783, 9072.270
1247.265, 9069.305
1247.747, 9050.294
1248.229, 9019.948
1248.711, 9027.966
1249.193, 9071.773
1249.676, 9106.944
1250.158, 9106.335
1250.640, 9096.354
1251.122, 9086.192
1251.604, 9072.428
1252.086, 9042.742
1252.568, 9005.348
1253.050, 9004.140
1253.532, 9036.064
1254.015, 9053.287
1254.497, 9013.639
1254.979, 8984.198
1255.461, 8979.813
1255.943, 8992.054
1256.425, 9016.372
1256.907, 9047.102
1257.389, 9071.899
1257.871, 9088.668
1258.354, 9090.258
1258.836, 9046.913
1259.318, 9029.451
1259.800, 9057.858
1260.282, 9095.794
1260.764, 9094.526
1261.246, 9071.647
1261.728, 9058.413
1262.211, 9056.355
1262.693, 9055.227
1263.175, 9048.897
1263.657, 9055.453
1264.139, 9083.372
1264.621, 9109.058
1265.103, 9094.358
1265.585, 9065.736
1266.068, 9064.492
1266.550, 9087.943
1267.032, 9087.394
1267.514, 9051.087
1267.996, 9017.230
1268.478, 8988.007
1268.960, 8981.759
1269.442, 9041.984
1269.924, 9116.393
1270.407, 9145.089
1270.889, 9132.212
1271.371, 9145.177
1271.853, 9190.177
1272.335, 9220.891
1272.817, 9229.537
1273.299, 9223.697
1273.781, 9190.384
1274.264, 9162.734
1274.746, 9180.708
1275.228, 9226.619
1275.710, 9238.345
1276.192, 9216.424
1276.674, 9196.682
1277.156, 9184.563
1277.638, 9184.087
1278.120, 9216.947
1278.603, 9242.547
1279.085, 9232.063
1279.567, 9201.579
1280.049, 9190.164
1280.531, 9193.380
1281.013, 9180.082
1281.495, 9144.254
1281.977, 9122.477
1282.459, 9157.544
1282.942, 9180.219
1283.424, 9158.688
1283.906, 9119.520
1284.388, 9112.032
1284.870, 9129.681
1285.352, 9161.852
1285.834, 9207.162
1286.316, 9232.961
1286.799, 9201.308
1287.281, 9196.824
1287.763, 9253.338
1288.245, 9318.354
1288.727, 9299.607
1289.209, 9237.848
1289.691, 9198.547
1290.173, 9189.623
1290.656, 9183.609
1291.138, 9173.896
1291.620, 9178.440
1292.102, 9204.646
1292.584, 9235.187
1293.066, 9250.953
1293.548, 9255.341
1294.030, 9254.981
1294.512, 9248.872
1294.995, 9234.661
1295.477, 9209.925
1295.959, 9193.157
1296.441, 9187.633
1296.923, 9189.923
1297.405, 9208.393
##END=



