##NAMES=Meneghinite
##RRUFFID=R050444
##IDEAL CHEMISTRY=Pb^2+^_13_Cu^1+^Sb^3+^_7_S^2-^_24_
##LOCALITY=Bottino, Tucsany, Italy
##OWNER=RRUFF
##SOURCE=Peter Megaw
##DESCRIPTION=Lead-gray metallic slender prismatic and striated crystal
##STATUS=The identification of this mineral is confirmed by single-crystal X-ray diffraction and chemical analysis.
##URL=rruff.info/R050444
##MEASURED CHEMISTRY=(Pb_12.75_Sb_0.25_)_Σ=13.00_(Cu_0.73_Sb_0.13_Fe_0.01_)_Σ=0.87_Sb_7.00_S_24.00_
183.468, 10690.000
184.846, 10660.000
186.224, 10850.000
187.602, 10820.000
188.979, 11150.000
190.356, 11440.000
191.733, 11270.000
193.110, 11020.000
194.486, 10960.000
195.863, 10610.000
197.239, 10580.000
198.615, 10510.000
199.990, 10690.000
201.366, 10970.000
202.741, 11260.000
204.116, 11830.000
205.490, 12300.000
206.865, 12920.000
208.239, 12710.000
209.613, 12130.000
210.987, 11490.000
212.361, 10690.000
213.734, 10080.000
215.107, 9702.000
216.480, 9494.000
217.853, 9281.000
219.226, 9041.000
220.598, 9021.000
221.970, 8808.000
223.342, 8848.000
224.714, 8735.000
226.085, 8705.000
227.457, 8699.000
228.828, 8620.000
230.198, 8638.000
231.569, 8501.000
232.939, 8491.000
234.309, 8474.000
235.679, 8412.000
237.049, 8479.000
238.419, 8439.219
239.788, 8434.000
241.157, 8430.000
242.526, 8452.000
243.894, 8448.000
245.263, 8503.000
246.631, 8844.000
247.999, 9047.000
249.367, 9547.000
250.734, 10170.000
252.102, 10690.000
253.469, 10920.000
254.836, 10590.000
256.202, 10370.000
257.569, 9655.000
258.935, 9235.000
260.301, 8828.000
261.667, 8582.000
263.033, 8430.000
264.398, 8371.000
265.763, 8298.000
267.128, 8203.000
268.493, 8174.000
269.857, 8226.000
271.222, 8202.000
272.586, 8282.000
273.950, 8199.000
275.313, 8285.000
276.677, 8292.000
278.040, 8283.000
279.403, 8489.000
280.766, 8476.000
282.128, 8555.000
283.491, 8600.000
284.853, 8706.000
286.215, 8811.000
287.576, 8847.000
288.938, 8936.000
290.299, 8873.000
291.660, 8821.000
293.021, 8794.000
294.382, 8757.045
295.742, 8770.000
297.102, 8693.000
298.462, 8770.000
299.822, 8841.954
301.182, 8946.000
302.541, 9128.000
303.900, 9293.000
305.259, 9548.000
306.618, 9816.000
307.976, 9913.000
309.334, 9750.000
310.692, 9543.000
312.050, 9123.000
313.408, 8581.000
314.765, 8285.000
316.123, 8023.000
317.479, 7764.000
318.836, 7596.000
320.193, 7446.000
321.549, 7306.000
322.905, 7241.000
324.261, 7290.000
325.617, 7120.000
326.972, 7126.000
328.328, 7013.000
329.683, 6991.000
331.037, 7018.000
332.392, 6904.000
333.747, 6944.222
335.101, 6826.000
336.455, 6965.000
337.808, 6841.000
339.162, 6859.000
340.515, 6848.000
341.868, 6814.000
343.221, 6852.000
344.574, 6780.000
345.927, 6712.000
347.279, 6772.000
348.631, 6768.000
349.983, 6802.000
351.334, 6678.000
352.686, 6716.000
354.037, 6718.000
355.388, 6615.000
356.739, 6723.000
358.089, 6630.000
359.440, 6625.000
360.790, 6575.000
362.140, 6531.000
363.489, 6581.000
364.839, 6513.000
366.188, 6517.000
367.537, 6592.000
368.886, 6418.000
370.235, 6524.000
371.583, 6452.000
372.932, 6470.000
374.280, 6465.000
375.627, 6450.000
376.975, 6399.000
378.322, 6364.000
379.669, 6345.000
381.016, 6273.000
382.363, 6337.000
383.710, 6341.000
385.056, 6309.000
386.402, 6337.000
387.748, 6320.109
389.094, 6286.000
390.439, 6329.000
391.784, 6313.000
393.129, 6356.000
394.474, 6356.765
395.819, 6342.000
397.163, 6344.000
398.508, 6365.000
399.852, 6311.000
401.195, 6340.000
402.539, 6447.000
403.882, 6395.000
405.225, 6475.000
406.568, 6332.000
407.911, 6366.000
409.254, 6504.000
410.596, 6463.000
411.938, 6543.000
413.280, 6560.000
414.621, 6630.000
415.963, 6612.000
417.304, 6806.000
418.645, 6893.000
419.986, 6826.000
421.327, 7039.000
422.667, 7034.000
424.007, 7127.000
425.347, 7388.000
426.687, 7424.000
428.027, 7653.000
429.366, 7808.000
430.705, 8034.000
432.044, 8382.000
433.383, 8478.000
434.721, 8771.000
436.059, 8918.000
437.398, 9147.000
438.735, 9325.000
440.073, 9263.000
441.411, 9415.000
442.748, 9252.000
444.085, 9334.000
445.422, 9194.000
446.758, 9265.000
448.095, 9081.000
449.431, 8903.000
450.767, 8925.000
452.103, 8649.000
453.438, 8411.000
454.774, 8270.000
456.109, 7964.000
457.444, 7830.000
458.778, 7658.000
460.113, 7583.000
461.447, 7433.000
462.781, 7234.000
464.115, 7235.000
465.449, 7048.000
466.782, 7075.000
468.116, 6951.000
469.449, 7012.000
470.782, 6955.000
472.114, 6912.000
473.447, 6867.000
474.779, 6859.000
476.111, 6851.000
477.443, 6762.000
478.774, 6785.000
480.106, 6710.000
481.437, 6752.000
482.768, 6846.000
484.099, 6690.000
485.429, 6802.000
486.760, 6796.000
488.090, 6847.000
489.420, 6792.000
490.749, 6756.000
492.079, 6748.000
493.408, 6835.000
494.737, 6727.000
496.066, 6831.000
497.395, 6692.000
498.723, 6829.000
500.052, 6702.000
501.380, 6702.000
502.708, 6704.000
504.035, 6640.000
505.363, 6695.000
506.690, 6668.000
508.017, 6474.000
509.344, 6511.000
510.670, 6553.000
511.997, 6447.000
513.323, 6506.000
514.649, 6443.565
515.975, 6415.000
517.300, 6338.000
518.626, 6367.000
519.951, 6288.000
521.276, 6365.000
522.600, 6233.000
523.925, 6201.000
525.249, 6297.000
526.573, 6249.000
527.897, 6266.000
529.221, 6171.000
530.545, 6188.000
531.868, 6242.000
533.191, 6258.000
534.514, 6205.000
535.837, 6283.000
537.159, 6252.492
538.481, 6313.000
539.803, 6256.000
541.125, 6270.000
542.447, 6290.000
543.768, 6268.000
545.090, 6404.000
546.411, 6269.000
547.731, 6391.000
549.052, 6405.000
550.372, 6319.000
551.693, 6481.000
553.013, 6341.000
554.332, 6557.000
555.652, 6494.000
556.971, 6568.000
558.291, 6486.000
559.609, 6528.000
560.928, 6651.000
562.247, 6689.000
563.565, 6654.000
564.883, 6756.000
566.201, 6737.000
567.519, 6878.000
568.837, 6785.000
570.154, 6817.000
571.471, 7002.000
572.788, 6972.000
574.105, 7092.000
575.421, 7095.000
576.737, 7247.000
578.053, 7281.000
579.369, 7262.000
580.685, 7410.000
582.001, 7384.000
583.316, 7596.000
584.631, 7641.000
585.946, 7689.000
587.260, 7822.000
588.575, 7967.000
589.889, 8059.000
591.203, 8156.000
592.517, 8268.000
593.831, 8467.000
595.144, 8402.000
596.457, 8726.000
597.770, 8901.000
599.083, 8829.000
600.396, 9160.000
601.708, 9447.000
603.020, 9608.000
604.332, 9782.000
605.644, 9916.000
606.956, 10129.820
608.267, 10370.000
609.578, 10580.000
610.889, 10710.000
612.200, 11000.000
613.511, 11110.000
614.821, 11320.000
616.131, 11490.000
617.441, 11720.000
618.751, 11880.000
620.061, 12120.583
621.370, 12290.000
622.679, 12570.000
623.988, 12850.000
625.297, 13030.000
626.605, 13470.000
627.914, 13600.000
629.222, 14180.000
630.530, 14340.000
631.837, 14950.000
633.145, 15560.000
634.452, 15870.000
635.759, 16960.000
637.066, 17450.000
638.373, 18810.000
639.680, 20060.000
640.986, 21360.000
642.292, 23440.000
643.598, 24820.000
644.904, 26600.000
646.209, 27710.000
647.514, 28010.000
648.819, 27780.000
650.124, 26600.000
651.429, 24840.000
652.734, 23030.000
654.038, 20980.000
655.342, 19450.000
656.646, 17590.000
657.950, 16230.000
659.253, 15150.000
660.556, 13960.000
661.859, 13170.000
663.162, 12340.000
664.465, 11730.000
665.767, 11110.000
667.070, 10690.000
668.372, 10160.000
669.674, 9941.000
670.975, 9554.000
672.277, 9305.000
673.578, 9050.000
674.879, 8778.000
676.180, 8603.000
677.480, 8431.178
678.781, 8297.054
680.081, 8141.000
681.381, 8111.000
682.681, 7905.000
683.981, 7813.000
685.280, 7748.000
686.579, 7530.000
687.878, 7574.000
689.177, 7424.000
690.476, 7390.000
691.774, 7378.000
693.073, 7220.000
694.371, 7324.000
695.669, 7044.000
696.966, 7232.000
698.264, 7050.000
699.561, 7002.000
700.858, 7055.000
702.155, 6860.000
703.451, 6947.000
704.748, 6878.000
706.044, 6710.000
707.340, 6904.000
708.636, 6737.000
709.932, 6717.000
711.227, 6777.000
712.522, 6638.000
713.817, 6598.000
715.112, 6622.000
716.407, 6545.000
717.701, 6526.000
718.995, 6433.000
720.289, 6408.000
721.583, 6388.000
722.877, 6309.000
724.170, 6378.000
725.464, 6389.000
726.757, 6242.000
728.049, 6162.000
729.342, 6221.000
730.634, 6153.000
731.927, 6140.000
733.219, 6204.000
734.511, 6018.000
735.802, 6092.000
737.094, 6044.000
738.385, 6000.000
739.676, 6029.000
740.967, 5983.000
742.257, 5927.000
743.548, 5905.000
744.838, 5918.000
746.128, 5929.000
747.418, 5923.000
748.708, 5904.000
749.997, 5885.000
751.286, 5842.000
752.575, 5837.000
753.864, 5824.000
755.153, 5670.000
756.441, 5789.000
757.730, 5746.000
759.018, 5816.000
760.306, 5703.000
761.593, 5758.000
762.881, 5744.000
764.168, 5744.000
765.455, 5699.000
766.742, 5633.000
768.028, 5633.000
769.315, 5574.000
770.601, 5622.000
771.887, 5648.000
773.173, 5607.000
774.459, 5684.000
775.744, 5649.837
777.030, 5625.946
778.315, 5641.000
779.600, 5559.000
780.884, 5581.000
782.169, 5574.000
783.453, 5566.000
784.737, 5554.000
786.021, 5579.000
787.305, 5553.000
788.588, 5557.000
789.872, 5513.000
791.155, 5582.000
792.438, 5504.000
793.720, 5534.000
795.003, 5572.000
796.285, 5497.000
797.567, 5464.000
798.849, 5492.000
800.131, 5478.000
801.412, 5573.000
802.694, 5482.000
803.975, 5504.000
805.256, 5335.000
806.537, 5506.000
807.817, 5494.000
809.098, 5424.000
810.378, 5458.000
811.658, 5547.000
812.937, 5450.000
814.217, 5470.000
815.496, 5534.000
816.775, 5475.000
818.054, 5491.000
819.333, 5556.000
820.612, 5536.000
821.890, 5494.000
823.168, 5533.000
824.446, 5516.189
825.724, 5532.000
827.002, 5537.000
828.279, 5530.000
829.556, 5545.000
830.833, 5523.000
832.110, 5485.000
833.387, 5555.000
834.663, 5591.000
835.939, 5474.000
837.216, 5524.000
838.491, 5593.000
839.767, 5490.000
841.042, 5537.000
842.318, 5650.000
843.593, 5578.000
844.868, 5625.000
846.142, 5492.000
847.417, 5696.000
848.691, 5558.000
849.965, 5640.000
851.239, 5697.000
852.513, 5627.000
853.786, 5688.000
855.059, 5618.000
856.333, 5666.000
857.605, 5741.000
858.878, 5696.000
860.151, 5802.000
861.423, 5702.000
862.695, 5723.000
863.967, 5738.000
865.239, 5668.000
866.510, 5761.000
867.782, 5803.000
869.053, 5737.000
870.324, 5705.000
871.595, 5764.000
872.865, 5695.000
874.136, 5819.000
875.406, 5763.000
876.676, 5758.000
877.945, 5833.000
879.215, 5828.000
880.484, 5788.000
881.754, 5879.000
883.023, 5852.000
884.292, 5802.000
885.560, 5809.000
886.829, 5905.000
888.097, 5803.000
889.365, 5952.000
890.633, 5891.000
891.900, 5918.000
893.168, 5978.000
894.435, 6004.000
895.702, 6012.634
896.969, 6034.827
898.236, 6013.000
899.502, 6030.000
900.769, 6030.000
902.035, 6000.000
903.301, 6054.000
904.566, 6018.000
905.832, 6158.000
907.097, 6070.000
908.362, 6203.000
909.627, 6192.000
910.892, 6226.000
912.157, 6211.000
913.421, 6248.148
914.685, 6226.000
915.949, 6307.000
917.213, 6305.000
918.476, 6310.000
919.740, 6431.000
921.003, 6414.000
922.266, 6618.000
923.529, 6470.000
924.792, 6701.000
926.054, 6630.000
927.316, 6849.000
928.578, 6780.000
929.840, 6830.000
931.102, 7028.000
932.363, 7087.000
933.625, 7142.000
934.886, 7268.000
936.147, 7483.000
937.407, 7483.000
938.668, 7772.000
939.928, 7862.000
941.188, 7903.000
942.448, 8195.000
943.708, 8278.000
944.967, 8660.000
946.227, 8916.000
947.486, 9247.000
948.745, 9572.408
950.004, 9868.588
951.262, 10200.000
952.521, 10550.000
953.779, 10840.000
955.037, 11290.000
956.295, 11530.000
957.552, 12300.000
958.810, 12700.000
960.067, 12790.000
961.324, 13740.000
962.581, 13810.000
963.838, 13820.000
965.094, 13940.000
966.350, 13740.000
967.607, 13680.000
968.862, 13450.000
970.118, 12940.000
971.374, 12450.000
972.629, 11810.000
973.884, 11450.000
975.139, 10950.000
976.394, 10460.000
977.649, 10160.000
978.903, 9901.000
980.157, 9288.000
981.411, 9047.000
982.665, 8679.000
983.919, 8578.000
985.172, 8199.000
986.425, 8116.000
987.678, 8143.000
988.931, 8162.000
990.184, 7881.000
991.436, 7648.000
992.689, 7508.000
993.941, 7497.000
995.193, 7360.000
996.444, 7255.000
997.696, 7326.000
998.947, 7175.000
1000.198, 7182.000
1001.449, 7076.000
1002.700, 7127.000
1003.951, 6948.000
1005.201, 6943.000
1006.451, 6951.000
1007.701, 7012.000
1008.951, 6865.000
1010.201, 6945.000
1011.450, 6840.000
1012.699, 6920.000
1013.948, 6848.000
1015.197, 6863.000
1016.446, 6904.000
1017.694, 6727.000
1018.943, 6839.000
1020.191, 6827.000
1021.439, 6715.000
1022.686, 6761.000
1023.934, 6702.000
1025.181, 6727.000
1026.428, 6698.000
1027.675, 6810.000
1028.922, 6726.000
1030.169, 6772.000
1031.415, 6644.000
1032.661, 6722.000
1033.907, 6693.000
1035.153, 6650.000
1036.399, 6694.000
1037.644, 6726.000
1038.890, 6758.000
1040.135, 6784.000
1041.380, 6679.000
1042.624, 6633.000
1043.869, 6695.000
1045.113, 6711.000
1046.357, 6776.000
1047.601, 6610.000
1048.845, 6638.000
1050.089, 6853.000
1051.332, 6640.000
1052.575, 6830.000
1053.818, 6651.000
1055.061, 6761.000
1056.304, 6812.000
1057.546, 6739.000
1058.788, 6706.000
1060.030, 6824.000
1061.272, 6655.000
1062.514, 6785.000
1063.756, 6679.000
1064.997, 6692.000
1066.238, 6767.000
1067.479, 6678.000
1068.720, 6799.000
1069.960, 6822.000
1071.201, 6673.000
1072.441, 6843.000
1073.681, 6767.000
1074.921, 6711.000
1076.160, 6741.000
1077.400, 6550.000
1078.639, 6755.000
1079.878, 6792.000
1081.117, 6642.000
1082.356, 6766.000
1083.594, 6611.000
1084.832, 6759.000
1086.071, 6669.000
1087.308, 6678.000
1088.546, 6764.000
1089.784, 6694.000
1091.021, 6780.000
1092.258, 6739.000
1093.495, 6675.000
1094.732, 6857.000
1095.969, 6706.000
1097.205, 6754.000
1098.441, 6721.000
1099.678, 6682.000
1100.913, 6683.000
1102.149, 6672.571
1103.385, 6673.000
1104.620, 6690.000
1105.855, 6715.000
1107.090, 6737.000
1108.325, 6784.000
1109.559, 6722.000
1110.794, 6798.000
1112.028, 6709.000
1113.262, 6800.000
1114.496, 6792.688
1115.730, 6772.451
1116.963, 6798.000
1118.196, 6761.000
1119.429, 6708.000
1120.662, 6720.000
1121.895, 6801.000
1123.127, 6707.000
1124.360, 6806.000
1125.592, 6694.000
1126.824, 6826.000
1128.056, 6868.000
1129.287, 6660.000
1130.519, 6882.000
1131.750, 6842.000
1132.981, 6688.000
1134.212, 6833.000
1135.443, 6696.000
1136.673, 6767.000
1137.903, 6891.000
1139.133, 6806.000
1140.363, 6796.000
1141.593, 6685.000
1142.823, 6775.000
1144.052, 6842.000
1145.281, 6900.000
1146.510, 6900.000
1147.739, 6924.000
1148.968, 6786.000
1150.196, 6912.000
1151.424, 6910.000
1152.653, 6780.000
1153.880, 6904.000
1155.108, 6727.000
1156.336, 6880.000
1157.563, 6790.000
1158.790, 6765.000
1160.017, 6882.000
1161.244, 6789.000
1162.471, 6717.000
1163.697, 6803.000
1164.923, 6789.000
1166.149, 6733.000
1167.375, 6744.000
1168.601, 6679.000
1169.826, 6665.000
1171.052, 6708.000
1172.277, 6651.000
1173.502, 6713.000
1174.726, 6722.000
1175.951, 6616.000
1177.175, 6741.000
1178.400, 6603.000
1179.624, 6618.000
1180.847, 6542.000
1182.071, 6643.000
1183.295, 6775.000
1184.518, 6679.000
1185.741, 6580.000
1186.964, 6695.000
1188.187, 6606.000
1189.409, 6681.000
1190.631, 6563.000
1191.854, 6681.000
1193.076, 6615.000
1194.297, 6607.000
1195.519, 6556.000
1196.741, 6692.000
1197.962, 6602.000
1199.183, 6722.000
1200.404, 6611.000
1201.625, 6684.000
1202.845, 6614.000
1204.065, 6699.000
1205.286, 6641.000
1206.506, 6628.000
1207.725, 6601.000
1208.945, 6589.000
1210.164, 6674.000
1211.384, 6622.000
1212.603, 6698.000
1213.822, 6699.000
1215.040, 6614.000
1216.259, 6667.000
1217.477, 6570.000
1218.695, 6680.000
1219.913, 6672.000
1221.131, 6548.000
1222.349, 6653.000
1223.566, 6627.000
1224.783, 6630.000
1226.000, 6565.000
1227.217, 6499.000
1228.434, 6661.000
1229.650, 6714.000
1230.867, 6547.000
1232.083, 6660.000
1233.299, 6561.000
1234.515, 6636.000
1235.730, 6562.000
1236.946, 6624.000
1238.161, 6572.000
1239.376, 6627.000
1240.591, 6606.000
1241.806, 6602.000
1243.020, 6628.000
1244.234, 6582.000
1245.449, 6690.000
1246.662, 6609.000
1247.876, 6674.000
1249.090, 6554.000
1250.303, 6672.000
1251.516, 6609.000
1252.730, 6604.000
1253.942, 6640.000
1255.155, 6542.000
1256.368, 6697.000
1257.580, 6648.000
1258.792, 6633.000
1260.004, 6650.000
1261.216, 6620.000
1262.427, 6665.000
1263.639, 6559.000
##END=



