##NAMES=Moraesite
##RRUFFID=R060876
##IDEAL CHEMISTRY=Be_2_PO_4_(OH)&#183;4H_2_O
##LOCALITY=Galileia, Minas Gerais, Brazil
##OWNER=RRUFF
##SOURCE=Bob Jenkins
##DESCRIPTION=Colorless to tan fibrous crystals associated with beryllonite
##STATUS=The identification of this mineral is confirmed by single-crystal X-ray diffraction and chemical analysis.
##URL=rruff.info/R060876
##MEASURED CHEMISTRY=Be_2.00_P_1.00_O_4_((OH)_0.85_F_0.15_)_Σ=1_·4H_2_O; trace amounts of Al and Fe; Be and H not measured but assumed by stoichiometry
94.71400, 19324.00
95.94800, 19235.00
97.18200, 19116.00
98.41600, 19515.22
99.64900, 19519.27
100.8830, 20094.00
102.1160, 19916.00
103.3490, 20184.00
104.5820, 20375.00
105.8150, 21153.00
107.0470, 22277.00
108.2800, 23635.00
109.5120, 24734.00
110.7440, 23573.00
111.9760, 22938.00
113.2080, 23114.00
114.4400, 24214.00
115.6710, 25536.00
116.9030, 26203.00
118.1340, 26804.00
119.3650, 27732.00
120.5960, 29019.00
121.8270, 30515.00
123.0580, 32274.00
124.2880, 33084.00
125.5190, 32556.00
126.7490, 31738.00
127.9790, 30357.00
129.2090, 29277.00
130.4390, 28137.00
131.6680, 27020.00
132.8980, 26054.00
134.1270, 25307.00
135.3560, 24593.00
136.5850, 24269.00
137.8140, 24246.00
139.0430, 24424.00
140.2710, 24199.00
141.5000, 23898.00
142.7280, 23696.00
143.9560, 23741.00
145.1840, 23774.00
146.4120, 23977.00
147.6390, 23857.00
148.8670, 24105.00
150.0940, 24245.00
151.3210, 24689.00
152.5490, 24731.00
153.7750, 24490.00
155.0020, 24208.00
156.2290, 24236.00
157.4550, 24161.00
158.6810, 24049.00
159.9080, 24056.00
161.1340, 24142.90
162.3590, 24261.00
163.5850, 24499.00
164.8110, 24788.00
166.0360, 25125.00
167.2610, 25161.00
168.4860, 25090.00
169.7110, 25279.00
170.9360, 25132.00
172.1610, 24734.00
173.3850, 24475.00
174.6100, 24394.00
175.8340, 24324.00
177.0580, 23961.00
178.2820, 23623.00
179.5050, 23748.00
180.7290, 23843.00
181.9520, 23557.00
183.1760, 23821.00
184.3990, 24051.00
185.6220, 24316.00
186.8450, 24666.00
188.0670, 24933.00
189.2900, 25078.00
190.5120, 25525.00
191.7340, 25858.00
192.9560, 26044.00
194.1780, 26209.00
195.4000, 26304.00
196.6220, 26407.00
197.8430, 26439.00
199.0640, 26349.00
200.2860, 26529.00
201.5070, 27208.00
202.7270, 27256.00
203.9480, 26084.00
205.1690, 24504.00
206.3890, 23740.00
207.6090, 23367.00
208.8290, 23364.00
210.0490, 23382.00
211.2690, 23396.00
212.4890, 23423.77
213.7080, 23425.62
214.9280, 23490.00
216.1470, 23465.00
217.3660, 23487.00
218.5850, 23575.00
219.8030, 23529.00
221.0220, 23686.00
222.2400, 23593.00
223.4590, 23751.00
224.6770, 23782.00
225.8950, 23842.00
227.1120, 23695.00
228.3300, 23800.00
229.5480, 23593.00
230.7650, 23730.00
231.9820, 23568.00
233.1990, 23775.00
234.4160, 23818.00
235.6330, 23795.00
236.8490, 23559.00
238.0660, 23705.00
239.2820, 23635.00
240.4980, 23606.00
241.7140, 23798.00
242.9300, 23570.00
244.1460, 23787.00
245.3610, 23869.00
246.5770, 23820.00
247.7920, 24013.85
249.0070, 24244.00
250.2220, 24273.00
251.4370, 24246.00
252.6510, 24428.00
253.8660, 24488.00
255.0800, 24600.00
256.2940, 24653.00
257.5080, 24715.00
258.7220, 25313.00
259.9360, 25160.57
261.1490, 25519.00
262.3630, 25213.00
263.5760, 25043.00
264.7890, 25072.00
266.0020, 25155.00
267.2150, 25184.82
268.4270, 25363.00
269.6400, 25393.00
270.8520, 25711.00
272.0640, 25780.00
273.2760, 25999.98
274.4880, 26117.00
275.7000, 26266.00
276.9120, 26192.00
278.1230, 25965.00
279.3340, 26116.96
280.5450, 26024.10
281.7560, 26212.00
282.9670, 26149.00
284.1780, 26178.00
285.3880, 26452.00
286.5980, 26470.00
287.8090, 26399.00
289.0190, 26483.00
290.2290, 26650.00
291.4380, 26602.00
292.6480, 26614.00
293.8570, 26885.00
295.0670, 26841.00
296.2760, 27129.00
297.4850, 26999.00
298.6930, 26932.00
299.9020, 27052.00
301.1110, 26926.00
302.3190, 27126.00
303.5270, 26465.00
304.7350, 26372.00
305.9430, 26317.00
307.1510, 26404.00
308.3580, 26252.60
309.5660, 26195.21
310.7730, 26090.00
311.9800, 25982.00
313.1870, 25973.00
314.3940, 25918.00
315.6010, 26036.00
316.8070, 25681.00
318.0130, 25669.00
319.2200, 25932.00
320.4260, 25900.00
321.6310, 26062.00
322.8370, 25990.00
324.0430, 25983.00
325.2480, 26271.00
326.4540, 26467.00
327.6590, 26467.00
328.8640, 26605.00
330.0680, 26828.00
331.2730, 26665.00
332.4780, 26700.00
333.6820, 26329.00
334.8860, 26452.00
336.0900, 26435.00
337.2940, 26066.00
338.4980, 26106.00
339.7010, 26130.00
340.9050, 26122.00
342.1080, 26131.00
343.3110, 26280.00
344.5140, 26368.00
345.7170, 26149.00
346.9200, 26212.00
348.1220, 26609.00
349.3240, 26251.00
350.5270, 26511.00
351.7290, 26479.00
352.9310, 26772.00
354.1320, 26730.00
355.3340, 26906.00
356.5350, 27211.00
357.7370, 27274.00
358.9380, 27610.00
360.1390, 28156.00
361.3400, 28476.00
362.5400, 28932.00
363.7410, 29546.00
364.9410, 30349.00
366.1410, 31351.00
367.3410, 32633.00
368.5410, 33884.00
369.7410, 35646.00
370.9400, 37553.00
372.1400, 39238.00
373.3390, 41008.00
374.5380, 42171.00
375.7370, 42419.00
376.9360, 41487.00
378.1350, 39966.00
379.3330, 38062.00
380.5310, 35918.00
381.7300, 34191.00
382.9280, 32790.00
384.1260, 31307.00
385.3230, 30638.00
386.5210, 30099.00
387.7180, 29184.00
388.9160, 28910.00
390.1130, 28894.00
391.3100, 28420.84
392.5060, 28386.00
393.7030, 28060.00
394.9000, 27726.00
396.0960, 27571.00
397.2920, 27558.00
398.4880, 27707.00
399.6840, 27706.00
400.8800, 27591.00
402.0750, 27559.00
403.2710, 27640.00
404.4660, 27704.00
405.6610, 27600.00
406.8560, 27625.00
408.0510, 27828.00
409.2450, 27903.00
410.4400, 28136.00
411.6340, 28442.00
412.8280, 28936.00
414.0220, 28951.00
415.2160, 29107.00
416.4100, 29290.00
417.6030, 29107.00
418.7970, 28914.00
419.9900, 28555.00
421.1830, 28314.00
422.3760, 28286.00
423.5690, 27943.00
424.7610, 27868.00
425.9540, 27750.00
427.1460, 27479.00
428.3380, 27788.00
429.5300, 27650.00
430.7220, 27457.00
431.9140, 27380.00
433.1050, 27524.00
434.2970, 27723.00
435.4880, 27471.00
436.6790, 27267.00
437.8700, 27449.00
439.0610, 27334.00
440.2510, 27389.00
441.4420, 27515.00
442.6320, 27602.00
443.8220, 27583.74
445.0120, 27483.00
446.2020, 27603.00
447.3910, 27473.00
448.5810, 27632.00
449.7700, 27726.00
450.9600, 27831.00
452.1490, 27608.00
453.3370, 27785.00
454.5260, 27743.00
455.7150, 27783.00
456.9030, 27804.00
458.0910, 27854.00
459.2800, 27949.96
460.4670, 28084.00
461.6550, 28195.00
462.8430, 28154.00
464.0300, 28318.00
465.2180, 28197.00
466.4050, 28329.00
467.5920, 28492.00
468.7790, 28736.00
469.9650, 28749.00
471.1520, 28781.00
472.3380, 28894.00
473.5250, 28823.00
474.7110, 28681.00
475.8970, 28485.00
477.0820, 28756.00
478.2680, 28775.00
479.4540, 28940.00
480.6390, 29110.00
481.8240, 28919.00
483.0090, 29052.00
484.1940, 29282.00
485.3780, 29049.00
486.5630, 28762.00
487.7470, 28974.00
488.9320, 28538.00
490.1160, 28429.00
491.3000, 28245.00
492.4830, 28347.00
493.6670, 28194.25
494.8500, 28302.00
496.0340, 28145.00
497.2170, 28208.00
498.4000, 28380.00
499.5820, 28346.00
500.7650, 28674.00
501.9480, 28256.00
503.1300, 28530.00
504.3120, 28375.00
505.4940, 28376.00
506.6760, 28650.00
507.8580, 28634.00
509.0390, 28373.00
510.2210, 28705.00
511.4020, 28743.00
512.5830, 28656.00
513.7640, 28887.00
514.9450, 28684.63
516.1250, 28645.00
517.3060, 28633.00
518.4860, 28714.00
519.6660, 29200.00
520.8460, 28914.00
522.0260, 28973.00
523.2060, 29462.00
524.3850, 29130.00
525.5650, 29198.00
526.7440, 29092.00
527.9230, 29327.00
529.1020, 29290.83
530.2810, 29409.79
531.4590, 29335.00
532.6380, 29593.00
533.8160, 29553.00
534.9940, 29520.00
536.1720, 29656.00
537.3500, 29736.00
538.5270, 29594.00
539.7050, 29685.00
540.8820, 29746.00
542.0590, 30002.00
543.2360, 30171.00
544.4130, 29949.00
545.5900, 30226.00
546.7660, 30140.00
547.9430, 30586.00
549.1190, 30589.00
550.2950, 30448.00
551.4710, 30683.00
552.6470, 30549.00
553.8220, 31078.00
554.9980, 30863.00
556.1730, 31047.00
557.3480, 31151.00
558.5230, 31032.00
559.6980, 31186.00
560.8730, 31178.00
562.0470, 31561.00
563.2220, 31559.00
564.3960, 31996.00
565.5700, 31807.00
566.7440, 32279.00
567.9170, 32470.00
569.0910, 32606.00
570.2640, 33113.00
571.4380, 33276.00
572.6110, 34072.00
573.7840, 34446.00
574.9570, 35266.00
576.1290, 35851.00
577.3020, 36775.00
578.4740, 37606.00
579.6460, 38415.00
580.8180, 39658.00
581.9900, 40199.00
583.1620, 40926.00
584.3330, 41242.00
585.5040, 41152.00
586.6760, 40435.00
587.8470, 39688.00
589.0180, 39087.00
590.1880, 38788.00
591.3590, 36574.00
592.5290, 34991.00
593.7000, 34720.00
594.8700, 33883.00
596.0400, 33072.00
597.2090, 32765.00
598.3790, 32546.00
599.5490, 31701.00
600.7180, 31858.00
601.8870, 31602.00
603.0560, 31428.00
604.2250, 31218.00
605.3940, 31051.00
606.5620, 31080.00
607.7300, 30959.00
608.8990, 30874.00
610.0670, 30806.00
611.2350, 30891.00
612.4020, 30891.00
613.5700, 30839.00
614.7370, 30591.00
615.9050, 30815.00
617.0720, 30638.00
618.2390, 30674.00
619.4060, 30611.00
620.5720, 30534.00
621.7390, 30669.00
622.9050, 30686.00
624.0710, 30733.00
625.2370, 30637.00
626.4030, 30889.00
627.5690, 31006.00
628.7340, 31281.00
629.9000, 30922.00
631.0650, 30977.00
632.2300, 30706.00
633.3950, 30732.00
634.5600, 30945.00
635.7240, 30840.00
636.8890, 31021.00
638.0530, 30832.00
639.2170, 30865.00
640.3810, 30947.00
641.5450, 31006.00
642.7080, 30893.00
643.8720, 30973.00
645.0350, 30741.00
646.1980, 31150.00
647.3610, 31080.00
648.5240, 31272.00
649.6870, 30982.00
650.8490, 31295.00
652.0120, 31213.00
653.1740, 31403.00
654.3360, 31502.00
655.4980, 31141.00
656.6600, 31624.00
657.8210, 31422.00
658.9830, 31588.00
660.1440, 31661.00
661.3050, 31753.00
662.4660, 31632.00
663.6270, 31869.00
664.7870, 31878.00
665.9480, 31976.00
667.1080, 32115.00
668.2680, 32259.00
669.4280, 32376.00
670.5880, 32484.47
671.7480, 32505.00
672.9070, 32718.00
674.0670, 32848.00
675.2260, 33058.00
676.3850, 33363.00
677.5440, 33507.00
678.7030, 33816.96
679.8610, 34091.00
681.0200, 34429.00
682.1780, 34653.00
683.3360, 35054.00
684.4940, 35502.00
685.6520, 35431.00
686.8090, 35916.00
687.9670, 36360.00
689.1240, 36579.00
690.2810, 37178.00
691.4380, 37335.00
692.5950, 37672.00
693.7520, 37577.00
694.9080, 37790.00
696.0650, 37863.00
697.2210, 37753.00
698.3770, 37808.00
699.5330, 37429.00
700.6880, 37154.00
701.8440, 36944.00
702.9990, 36638.00
704.1550, 36440.00
705.3100, 36202.00
706.4650, 35827.00
707.6190, 35561.00
708.7740, 35205.00
709.9290, 34729.00
711.0830, 34563.00
712.2370, 34316.00
713.3910, 34244.00
714.5450, 34287.00
715.6980, 34215.00
716.8520, 34055.00
718.0050, 33713.00
719.1580, 33585.00
720.3110, 33735.00
721.4640, 33465.00
722.6170, 33665.00
723.7700, 33505.00
724.9220, 33465.00
726.0740, 33231.00
727.2260, 33061.00
728.3780, 33291.00
729.5300, 33338.00
730.6810, 33344.00
731.8330, 33337.00
732.9840, 33355.23
734.1350, 33331.30
735.2860, 33362.00
736.4370, 33254.00
737.5880, 33257.00
738.7380, 33145.00
739.8880, 32933.00
741.0390, 33290.00
742.1890, 33360.00
743.3380, 33351.00
744.4880, 33182.00
745.6380, 33247.00
746.7870, 33365.00
747.9360, 33374.00
749.0850, 33313.00
750.2340, 33312.00
751.3830, 33327.84
752.5310, 33294.66
753.6800, 33389.00
754.8280, 33309.00
755.9760, 33357.00
757.1240, 33447.00
758.2720, 33538.00
759.4190, 33376.00
760.5670, 33413.00
761.7140, 33423.92
762.8610, 33404.62
764.0080, 33460.00
765.1550, 33440.00
766.3020, 33437.00
767.4480, 33398.00
768.5950, 33508.00
769.7410, 33750.00
770.8870, 33807.00
772.0330, 33682.00
773.1780, 34117.00
774.3240, 33811.00
775.4690, 33863.00
776.6140, 34038.00
777.7590, 33974.00
778.9040, 33988.00
780.0490, 34132.00
781.1940, 34114.00
782.3380, 34318.00
783.4820, 34337.00
784.6260, 34205.00
785.7700, 34441.00
786.9140, 34427.00
788.0580, 34653.00
789.2010, 34685.97
790.3450, 34686.11
791.4880, 34721.00
792.6310, 34631.00
793.7730, 34522.00
794.9160, 34454.00
796.0590, 34572.00
797.2010, 34418.00
798.3430, 34576.00
799.4850, 34507.00
800.6270, 34510.00
801.7690, 34605.00
802.9100, 34584.00
804.0520, 34612.00
805.1930, 34407.00
806.3340, 34523.00
807.4750, 34330.20
808.6160, 34534.00
809.7560, 34484.00
810.8970, 34830.00
812.0370, 34746.02
813.1770, 34905.00
814.3170, 34700.00
815.4570, 34707.00
816.5960, 34701.00
817.7360, 34813.00
818.8750, 34794.00
820.0140, 34586.00
821.1530, 34892.00
822.2920, 34849.00
823.4310, 35002.00
824.5690, 34810.00
825.7070, 34712.00
826.8460, 34666.00
827.9840, 34805.00
829.1220, 34878.00
830.2590, 35080.00
831.3970, 35061.42
832.5340, 35087.00
833.6710, 35031.00
834.8080, 35055.00
835.9450, 34996.00
837.0820, 35256.00
838.2190, 35098.00
839.3550, 35178.00
840.4910, 35255.00
841.6270, 35109.00
842.7630, 35323.00
843.8990, 35361.00
845.0350, 35250.00
846.1700, 35263.00
847.3060, 35563.00
848.4410, 35371.44
849.5760, 35707.00
850.7100, 35281.00
851.8450, 35620.00
852.9800, 35715.00
854.1140, 35595.00
855.2480, 35691.00
856.3820, 35820.00
857.5160, 35929.00
858.6500, 35977.00
859.7830, 35819.00
860.9170, 36052.00
862.0500, 35795.00
863.1830, 35835.00
864.3160, 35525.00
865.4480, 35611.52
866.5810, 35986.00
867.7130, 35765.00
868.8460, 36002.00
869.9780, 36157.00
871.1100, 36232.00
872.2410, 36027.00
873.3730, 35801.00
874.5050, 35928.00
875.6360, 36009.00
876.7670, 36061.00
877.8980, 36159.00
879.0290, 35915.00
880.1590, 35997.00
881.2900, 36112.00
882.4200, 36286.00
883.5500, 36213.00
884.6800, 36098.00
885.8100, 36423.00
886.9400, 36252.00
888.0690, 36348.00
889.1990, 36404.00
890.3280, 36265.00
891.4570, 36191.00
892.5860, 36376.00
893.7140, 36369.00
894.8430, 36592.00
895.9710, 36219.00
897.1000, 36277.00
898.2280, 36385.00
899.3560, 36420.00
900.4830, 36618.00
901.6110, 36667.00
902.7380, 36538.00
903.8660, 36769.00
904.9930, 36736.00
906.1200, 36574.00
907.2460, 36758.00
908.3730, 36769.00
909.5000, 36550.00
910.6260, 36903.00
911.7520, 36813.00
912.8780, 36747.00
914.0040, 37063.00
915.1290, 36910.00
916.2550, 37120.00
917.3800, 36908.00
918.5050, 37019.00
919.6300, 37101.00
920.7550, 36866.00
921.8800, 37043.00
923.0040, 37068.00
924.1290, 37062.00
925.2530, 37397.00
926.3770, 37191.00
927.5010, 37009.00
928.6250, 37333.00
929.7480, 37367.00
930.8720, 37642.00
931.9950, 37713.00
933.1180, 37456.00
934.2410, 37454.00
935.3640, 37323.00
936.4860, 37577.00
937.6090, 37869.00
938.7310, 37625.00
939.8530, 37511.00
940.9750, 37719.00
942.0970, 37532.00
943.2180, 37909.00
944.3400, 38020.00
945.4610, 38080.00
946.5820, 38029.00
947.7030, 38139.00
948.8240, 37968.00
949.9450, 38105.00
951.0650, 38156.00
952.1860, 37968.00
953.3060, 38355.00
954.4260, 38213.00
955.5460, 38298.00
956.6650, 38365.00
957.7850, 38214.00
958.9040, 38325.15
960.0230, 38651.00
961.1420, 38486.00
962.2610, 38433.00
963.3800, 38722.00
964.4990, 38662.00
965.6170, 38812.00
966.7350, 38708.00
967.8530, 38828.00
968.9710, 39241.00
970.0890, 38879.00
971.2070, 38826.00
972.3240, 39079.00
973.4410, 38872.00
974.5580, 39288.00
975.6750, 38970.00
976.7920, 39381.00
977.9090, 39108.00
979.0250, 39269.00
980.1410, 39619.00
981.2580, 39417.43
982.3740, 40048.00
983.4890, 39565.00
984.6050, 39231.00
985.7200, 39736.00
986.8360, 39922.00
987.9510, 40004.00
989.0660, 39885.00
990.1810, 40025.00
991.2950, 40450.00
992.4100, 40532.00
993.5240, 40709.00
994.6390, 40632.00
995.7530, 40962.00
996.8660, 40992.00
997.9800, 41003.00
999.0940, 41473.00
1000.207, 41754.00
1001.320, 41881.00
1002.433, 42084.00
1003.546, 42396.00
1004.659, 42723.00
1005.772, 42883.00
1006.884, 43445.00
1007.996, 43885.00
1009.108, 44292.00
1010.220, 44916.00
1011.332, 45258.00
1012.444, 45999.00
1013.555, 46439.00
1014.666, 47734.00
1015.777, 48576.00
1016.888, 49700.00
1017.999, 50963.00
1019.110, 51892.00
1020.220, 53467.00
1021.331, 55143.00
1022.441, 56534.00
1023.551, 57651.00
1024.661, 59006.00
1025.770, 59825.00
1026.880, 60574.00
1027.989, 61042.00
1029.098, 61088.00
1030.207, 60841.00
1031.316, 60708.00
1032.425, 59810.00
1033.533, 59160.00
1034.642, 58181.00
1035.750, 57343.00
1036.858, 56367.00
1037.966, 55170.00
1039.073, 53919.00
1040.181, 53018.00
1041.288, 51748.00
1042.396, 50407.00
1043.503, 49314.00
1044.610, 48502.00
1045.716, 47607.00
1046.823, 46917.00
1047.929, 46308.00
1049.036, 45705.00
1050.142, 45191.00
1051.248, 45056.00
1052.353, 44440.00
1053.459, 44397.00
1054.564, 43873.00
1055.670, 43608.00
1056.775, 43422.00
1057.880, 43162.00
1058.985, 42975.00
1060.089, 43009.00
1061.194, 42960.00
1062.298, 42797.00
1063.402, 42797.54
1064.506, 42614.00
1065.610, 42779.00
1066.713, 42622.00
1067.817, 42835.00
1068.920, 42563.00
1070.023, 42688.00
1071.126, 42593.00
1072.229, 42810.66
1073.332, 43578.00
1074.435, 43123.00
1075.537, 43458.00
1076.639, 43087.00
1077.741, 43630.00
1078.843, 43810.00
1079.945, 43928.00
1081.046, 43890.00
1082.148, 43956.00
1083.249, 43819.00
1084.350, 43606.00
1085.451, 43421.00
1086.551, 43638.00
1087.652, 43480.00
1088.752, 43031.00
1089.853, 43262.00
1090.953, 42911.00
1092.053, 42863.00
1093.152, 43211.00
1094.252, 42812.00
1095.351, 43019.00
1096.451, 42951.00
1097.550, 42757.00
1098.649, 42727.00
1099.748, 42705.98
1100.846, 42795.00
1101.945, 42782.00
1103.043, 42672.00
1104.141, 42778.00
1105.239, 42755.96
1106.337, 42895.00
1107.434, 42819.00
1108.532, 42722.00
1109.629, 42720.00
1110.726, 42784.00
1111.823, 42781.04
1112.920, 42763.00
1114.017, 42915.00
1115.113, 42995.00
1116.210, 43124.00
1117.306, 42969.00
1118.402, 42951.00
1119.498, 42935.27
1120.593, 42896.00
1121.689, 42973.00
1122.784, 42957.00
1123.879, 43239.00
1124.974, 43156.28
1126.069, 43249.61
1127.164, 42970.00
1128.259, 43387.00
1129.353, 42982.00
1130.447, 43163.00
1131.541, 43215.00
1132.635, 43433.00
1133.729, 43075.00
1134.822, 43440.00
1135.916, 43432.00
1137.009, 43264.00
1138.102, 43579.00
1139.195, 43378.00
1140.288, 43448.00
1141.380, 43424.00
1142.473, 43370.00
1143.565, 43419.00
1144.657, 43409.21
1145.749, 43418.57
1146.841, 43480.00
1147.932, 43404.00
1149.024, 43480.00
1150.115, 43374.00
1151.206, 43397.00
1152.297, 43461.86
1153.388, 43565.00
1154.479, 43578.00
1155.569, 43762.00
1156.659, 43763.00
1157.750, 43733.00
1158.839, 43696.00
1159.929, 43921.00
1161.019, 43793.00
1162.108, 43918.00
1163.198, 44063.00
1164.287, 43964.00
1165.376, 43772.00
1166.465, 44035.00
1167.553, 44164.00
1168.642, 44104.00
1169.730, 44256.00
1170.818, 44298.00
1171.906, 44378.00
1172.994, 44286.00
1174.082, 44364.00
1175.170, 44376.00
1176.257, 44405.95
1177.344, 44538.00
1178.431, 44553.00
1179.518, 44571.82
1180.605, 44410.00
1181.691, 44531.00
1182.778, 44436.00
1183.864, 44341.00
1184.950, 44654.00
1186.036, 44941.00
1187.122, 44510.00
1188.207, 44760.00
1189.292, 44662.00
1190.378, 44605.00
1191.463, 44875.00
1192.548, 44834.00
1193.632, 44807.00
1194.717, 44937.00
1195.801, 44959.00
1196.886, 44999.00
1197.970, 45257.00
1199.054, 45100.00
1200.137, 44878.00
1201.221, 45140.00
1202.305, 45150.00
1203.388, 45104.00
1204.471, 45425.00
1205.554, 45498.00
1206.637, 45321.00
1207.719, 45216.00
1208.802, 45315.00
1209.884, 45321.00
1210.966, 45555.00
1212.048, 45665.00
1213.130, 45524.00
1214.212, 45554.00
1215.293, 45443.00
1216.374, 45863.00
1217.456, 45786.00
1218.536, 45694.00
1219.617, 45984.00
1220.698, 45960.00
1221.778, 45719.00
1222.859, 46178.00
1223.939, 45991.00
1225.019, 46011.00
1226.099, 46327.00
1227.178, 46150.00
1228.258, 46255.00
1229.337, 46346.00
1230.417, 46317.00
1231.496, 46365.00
1232.574, 46128.00
1233.653, 46135.00
1234.732, 46210.61
1235.810, 46311.00
1236.888, 46442.00
1237.966, 46517.00
1239.044, 46652.00
1240.122, 46565.00
1241.199, 46430.00
1242.277, 46545.00
1243.354, 46635.00
1244.431, 46847.00
1245.508, 46759.00
1246.585, 46657.00
1247.661, 46705.00
1248.738, 46577.00
1249.814, 46829.00
1250.890, 47073.00
1251.966, 47060.00
1253.042, 47046.00
1254.117, 47203.00
1255.193, 47161.74
1256.268, 47107.00
1257.343, 47205.00
1258.418, 47246.00
1259.493, 47284.00
1260.567, 47341.00
1261.642, 47451.00
1262.716, 47284.00
1263.790, 47505.00
1264.864, 47479.00
1265.938, 47506.00
1267.011, 47593.00
1268.085, 47729.00
1269.158, 47819.00
1270.231, 47973.00
1271.304, 47654.00
1272.377, 47913.00
1273.450, 47955.00
1274.522, 47735.00
1275.594, 48069.00
1276.666, 48148.00
1277.738, 48222.00
1278.810, 48155.00
1279.882, 47913.00
1280.953, 48042.00
1282.025, 48340.00
1283.096, 48520.00
1284.167, 48240.00
1285.238, 48490.00
1286.308, 48321.00
1287.379, 48599.00
1288.449, 48354.00
1289.519, 48240.00
1290.589, 48821.00
1291.659, 48579.00
1292.729, 48570.00
1293.798, 48673.00
1294.868, 48750.00
1295.937, 48670.00
1297.006, 48622.00
1298.075, 48710.00
1299.143, 48654.00
1300.212, 48861.00
1301.280, 49127.00
1302.348, 49036.00
1303.416, 49190.00
1304.484, 48891.00
1305.552, 49223.00
1306.620, 49123.00
1307.687, 49356.00
1308.754, 49246.00
1309.821, 49252.00
1310.888, 49114.00
1311.955, 49484.00
1313.021, 49192.00
1314.088, 49353.00
1315.154, 49102.00
1316.220, 49444.00
1317.286, 49702.00
1318.352, 49695.00
1319.417, 49585.00
1320.483, 49585.00
1321.548, 49481.00
1322.613, 49790.00
1323.678, 49535.00
1324.743, 49397.00
1325.807, 50029.00
1326.872, 49930.00
1327.936, 49973.00
1329.000, 49993.00
1330.064, 49923.00
1331.128, 50039.00
1332.191, 50135.00
1333.255, 50106.00
1334.318, 50124.00
1335.381, 50249.00
1336.444, 50164.00
1337.507, 50357.00
1338.569, 50421.00
1339.632, 50310.00
1340.694, 50557.00
1341.756, 50352.00
1342.818, 50477.00
1343.880, 50386.00
1344.941, 50462.00
1346.003, 50565.00
1347.064, 50615.00
1348.125, 50641.00
1349.186, 50686.00
1350.247, 50915.00
1351.308, 50528.00
1352.368, 50879.00
1353.428, 50698.00
1354.489, 50818.00
1355.549, 50895.07
1356.608, 50714.00
1357.668, 51067.00
1358.727, 50927.00
1359.787, 51178.00
1360.846, 51141.00
1361.905, 51029.00
1362.964, 51121.00
1364.022, 51044.95
1365.081, 50963.00
1366.139, 51061.00
1367.197, 51058.00
1368.255, 51191.79
1369.313, 51235.57
1370.371, 51521.00
1371.428, 51469.00
1372.486, 51311.00
1373.543, 51623.00
1374.600, 51822.00
1375.657, 51609.00
1376.713, 51498.00
1377.770, 51647.00
1378.826, 51547.00
1379.882, 51553.00
1380.938, 51753.00
1381.994, 51710.00
1383.050, 51699.00
1384.106, 51854.00
1385.161, 51851.00
1386.216, 51959.00
1387.271, 51913.00
1388.326, 51834.00
1389.381, 51847.00
1390.435, 51969.00
1391.490, 51880.00
1392.544, 52235.00
1393.598, 52265.00
1394.652, 52414.00
1395.705, 51989.00
1396.759, 52217.00
1397.812, 52285.00
1398.866, 52531.00
1399.919, 52286.00
1400.972, 52230.00
1402.024, 52289.00
1403.077, 52272.00
1404.129, 52318.12
1405.181, 52463.00
1406.233, 52435.00
1407.285, 52533.00
1408.337, 52611.00
1409.389, 52445.00
1410.440, 52593.00
1411.491, 52511.00
1412.542, 52650.00
1413.593, 52590.92
1414.644, 52917.00
1415.695, 52532.00
1416.745, 52837.00
1417.795, 52930.00
1418.845, 52778.00
1419.895, 52908.00
1420.945, 52934.00
1421.995, 52898.00
1423.044, 53005.00
1424.093, 52916.00
1425.142, 52783.00
1426.191, 53010.00
1427.240, 53166.00
1428.289, 53001.00
1429.337, 53430.00
1430.385, 53009.00
1431.433, 53262.00
1432.481, 53138.00
1433.529, 53520.00
1434.577, 53358.00
1435.624, 53537.00
1436.672, 53420.00
1437.719, 53655.00
1438.766, 53577.09
1439.812, 53610.00
1440.859, 53486.00
1441.905, 53498.00
1442.952, 53439.00
1443.998, 53461.00
1445.044, 53569.54
1446.090, 53554.00
1447.135, 53755.00
1448.181, 53831.00
1449.226, 53733.00
1450.271, 54075.00
1451.316, 53823.00
1452.361, 53873.00
1453.405, 54129.00
1454.450, 53800.00
1455.494, 53865.00
1456.538, 53977.00
1457.582, 53997.00
1458.626, 53988.00
1459.670, 54318.00
1460.713, 54172.00
1461.757, 54277.00
1462.800, 54207.00
1463.843, 54185.00
1464.886, 54399.00
1465.928, 54391.00
1466.971, 54315.00
1468.013, 54476.00
1469.055, 54144.00
1470.097, 54305.00
1471.139, 54406.00
1472.181, 54354.00
1473.222, 54493.00
1474.263, 54454.00
1475.305, 54692.00
1476.346, 54656.00
1477.386, 54798.00
1478.427, 54810.00
1479.468, 54819.00
1480.508, 54844.00
1481.548, 54557.00
1482.588, 54724.00
1483.628, 54777.00
1484.668, 55078.00
1485.707, 55024.00
1486.747, 55114.00
1487.786, 55087.00
1488.825, 54984.00
1489.864, 55223.00
1490.902, 54797.00
1491.941, 55152.00
1492.979, 55130.00
1494.017, 55222.00
1495.055, 55131.00
1496.093, 55171.00
1497.131, 55280.00
1498.168, 55119.00
1499.206, 55512.00
1500.243, 55369.00
1501.280, 55240.00
1502.317, 55699.00
1503.354, 55734.00
1504.390, 55711.00
1505.426, 55584.00
1506.463, 55733.00
1507.499, 55776.00
1508.535, 55543.00
1509.570, 55712.00
1510.606, 55681.00
1511.641, 55658.00
1512.676, 56235.00
1513.711, 55846.00
1514.746, 56089.00
1515.781, 55918.00
1516.816, 55929.00
1517.850, 56371.00
1518.884, 56054.00
1519.918, 56016.00
1520.952, 56358.00
1521.986, 56109.00
1523.019, 56377.00
1524.053, 56253.00
1525.086, 56347.00
1526.119, 56610.00
1527.152, 56270.00
1528.185, 56258.00
1529.217, 56492.00
1530.250, 56533.00
1531.282, 56604.00
1532.314, 56562.00
1533.346, 56583.00
1534.377, 57052.00
1535.409, 56517.00
1536.440, 56857.00
1537.472, 56581.00
1538.503, 57045.00
1539.534, 56625.00
1540.564, 56759.00
1541.595, 56872.00
1542.625, 57045.00
1543.656, 57064.00
1544.686, 57291.00
1545.716, 56997.00
1546.745, 57083.00
1547.775, 57650.00
1548.804, 57389.00
1549.834, 57546.00
1550.863, 57545.00
1551.892, 57649.00
1552.920, 57716.00
1553.949, 57572.00
1554.977, 57934.00
1556.006, 57735.00
1557.034, 57692.00
1558.062, 57428.00
1559.089, 57570.00
1560.117, 57482.54
1561.144, 57804.00
1562.172, 57542.00
##END=



