##NAMES=Natrolite
##RRUFFID=R040022
##IDEAL CHEMISTRY=Na_2_(Si_3_Al_2_)O_10_&#183;2H_2_O
##LOCALITY=Patterson, Passaic County, New Jersey, USA
##OWNER=RRUFF
##SOURCE=University of Arizona Mineral Museum
##DESCRIPTION=White fine fibrous mass
##STATUS=The identification of this mineral has been confirmed by X-ray diffraction and chemical analysis
##URL=rruff.info/R040022
##MEASURED CHEMISTRY=(Na_1.87_Ca_0.08_[box]_0.05_)_Σ=2_(Si_2.97_Al_2.03_)O_10_·1.95H_2_O; H_2_O estimated by difference
58.452, 2.229e+003
59.86000, 2464.000
61.26800, 2659.000
62.67500, 3023.000
64.08300, 3369.000
65.48900, 3616.000
66.89600, 3954.000
68.30200, 4200.000
69.70900, 4728.000
71.11400, 5294.000
72.52000, 5803.000
73.92500, 6747.000
75.33100, 7648.000
76.73500, 8069.000
78.14000, 7888.000
79.54400, 7677.000
80.94900, 7716.000
82.35200, 7858.000
83.75600, 8144.000
85.15900, 8303.000
86.56300, 8543.000
87.96500, 8802.000
89.36800, 9131.000
90.77000, 9423.000
92.17300, 9644.000
93.57400, 9776.000
94.97600, 9955.000
96.37800, 10110.00
97.77900, 10220.00
99.18000, 10390.00
100.5800, 10740.00
101.9810, 11090.00
103.3810, 11380.00
104.7810, 12210.00
106.1800, 13030.00
107.5800, 13040.00
108.9790, 13330.00
110.3780, 13780.00
111.7760, 14180.00
113.1750, 14800.00
114.5730, 15380.00
115.9710, 15780.00
117.3690, 15980.00
118.7660, 16480.00
120.1630, 16890.00
121.5600, 16790.00
122.9570, 16420.00
124.3530, 15120.00
125.7490, 14240.00
127.1450, 13440.00
128.5410, 13300.00
129.9370, 13360.00
131.3320, 13290.00
132.7270, 13490.00
134.1210, 14020.00
135.5160, 14200.00
136.9100, 15070.00
138.3040, 15940.00
139.6980, 17140.00
141.0910, 18430.00
142.4840, 19210.00
143.8770, 19590.00
145.2700, 19420.00
146.6630, 18420.00
148.0550, 17460.00
149.4470, 16480.00
150.8390, 16040.00
152.2300, 15840.00
153.6210, 16250.00
155.0120, 17060.00
156.4030, 18550.00
157.7940, 20230.00
159.1840, 22000.00
160.5740, 23570.00
161.9640, 24120.00
163.3530, 24090.00
164.7430, 22490.00
166.1320, 21210.00
167.5200, 19560.00
168.9090, 18250.00
170.2970, 17280.00
171.6850, 16620.00
173.0730, 15970.00
174.4610, 15390.00
175.8480, 14790.00
177.2350, 14470.00
178.6220, 14270.00
180.0080, 14310.00
181.3950, 14340.00
182.7810, 14490.00
184.1670, 14780.00
185.5520, 14520.00
186.9380, 14350.00
188.3230, 14000.00
189.7080, 13760.00
191.0920, 13440.00
192.4770, 13470.00
193.8610, 13320.00
195.2450, 13490.00
196.6290, 13700.00
198.0120, 13830.00
199.3950, 14370.00
200.7780, 14970.00
202.1610, 15630.00
203.5430, 16580.00
204.9250, 17250.00
206.3070, 17770.00
207.6890, 17570.00
209.0700, 17050.00
210.4520, 16210.00
211.8330, 15310.00
213.2130, 14830.00
214.5940, 14280.00
215.9740, 13840.00
217.3540, 13610.00
218.7340, 13300.00
220.1130, 13300.00
221.4930, 12950.00
222.8720, 13020.00
224.2510, 12730.00
225.6290, 12760.00
227.0070, 12710.00
228.3850, 12740.00
229.7630, 12640.00
231.1410, 12680.00
232.5180, 12830.00
233.8950, 13050.00
235.2720, 13470.00
236.6490, 14060.00
238.0250, 14620.00
239.4010, 15470.00
240.7770, 15490.00
242.1530, 15200.00
243.5280, 14470.00
244.9030, 13750.00
246.2780, 13360.00
247.6530, 12940.00
249.0270, 12830.00
250.4020, 12610.00
251.7750, 12670.00
253.1490, 12690.00
254.5230, 12690.00
255.8960, 12600.00
257.2690, 12660.00
258.6420, 12770.00
260.0140, 12810.00
261.3860, 12960.00
262.7580, 13150.00
264.1300, 13230.00
265.5020, 13610.00
266.8730, 13680.00
268.2440, 13950.00
269.6150, 14100.00
270.9850, 14180.00
272.3560, 14080.00
273.7260, 13700.00
275.0960, 13710.00
276.4650, 13480.00
277.8350, 13340.00
279.2040, 13430.00
280.5730, 13250.00
281.9410, 13220.00
283.3100, 13190.00
284.6780, 13350.00
286.0460, 13370.00
287.4130, 13340.00
288.7810, 13470.00
290.1480, 13340.00
291.5150, 13610.00
292.8820, 13540.00
294.2480, 13580.00
295.6150, 13700.00
296.9810, 13960.00
298.3460, 14270.00
299.7120, 14775.89
301.0770, 15180.00
302.4420, 16010.00
303.8070, 16840.00
305.1720, 17540.00
306.5360, 17280.00
307.9000, 16530.00
309.2640, 15620.00
310.6280, 14890.00
311.9910, 14390.00
313.3540, 14140.00
314.7170, 13920.00
316.0800, 13820.00
317.4420, 13840.00
318.8040, 13670.00
320.1660, 13820.00
321.5280, 13840.00
322.8890, 13960.00
324.2510, 13950.00
325.6120, 14080.00
326.9720, 14300.00
328.3330, 14320.00
329.6930, 14450.00
331.0530, 14600.00
332.4130, 14470.00
333.7730, 14650.00
335.1320, 14370.00
336.4910, 14300.00
337.8500, 14380.00
339.2080, 14080.00
340.5670, 14310.00
341.9250, 14150.00
343.2830, 14330.00
344.6400, 14310.00
345.9980, 14510.00
347.3550, 14530.00
348.7120, 14610.00
350.0690, 14820.00
351.4250, 14840.00
352.7810, 15020.00
354.1370, 15120.00
355.4930, 15460.00
356.8490, 15440.00
358.2040, 15670.00
359.5590, 15840.00
360.9140, 15890.00
362.2680, 15450.00
363.6230, 15460.00
364.9770, 15190.00
366.3310, 15200.00
367.6840, 14830.00
369.0380, 14870.00
370.3910, 14870.00
371.7440, 14780.00
373.0970, 14940.00
374.4490, 14760.00
375.8010, 14740.00
377.1530, 14910.00
378.5050, 14750.00
379.8570, 14880.00
381.2080, 14710.00
382.5590, 14740.00
383.9100, 14810.00
385.2600, 14990.00
386.6110, 14940.00
387.9610, 14950.00
389.3110, 15020.00
390.6600, 14810.00
392.0100, 14980.00
393.3590, 15040.00
394.7080, 15080.00
396.0560, 15270.00
397.4050, 15295.32
398.7530, 15280.00
400.1010, 15430.00
401.4490, 15430.00
402.7960, 15470.00
404.1430, 15550.00
405.4900, 15660.00
406.8370, 15780.00
408.1840, 16160.00
409.5300, 16040.00
410.8760, 16290.00
412.2220, 16480.00
413.5680, 16340.00
414.9130, 16540.00
416.2580, 16660.00
417.6030, 16930.00
418.9480, 16860.00
420.2920, 16970.00
421.6370, 17340.00
422.9810, 17570.00
424.3240, 17940.00
425.6680, 18340.00
427.0110, 18680.00
428.3540, 19530.00
429.6970, 20450.00
431.0400, 21870.00
432.3820, 22780.00
433.7240, 24220.00
435.0660, 25200.00
436.4080, 25870.00
437.7490, 26500.00
439.0900, 26980.00
440.4310, 27290.00
441.7720, 27990.00
443.1130, 27810.00
444.4530, 27990.00
445.7930, 27550.00
447.1330, 27080.00
448.4720, 26330.00
449.8110, 24830.00
451.1510, 23120.00
452.4890, 21700.00
453.8280, 20530.00
455.1660, 19620.00
456.5050, 18650.00
457.8430, 18440.00
459.1800, 18130.00
460.5180, 17770.00
461.8550, 17570.00
463.1920, 17500.00
464.5290, 17610.00
465.8650, 17360.00
467.2020, 17460.00
468.5380, 17360.00
469.8730, 17460.00
471.2090, 17420.00
472.5440, 17360.00
473.8800, 17550.00
475.2140, 17490.00
476.5490, 17670.00
477.8840, 17780.00
479.2180, 17960.00
480.5520, 17980.00
481.8860, 18060.00
483.2190, 18230.00
484.5520, 18310.00
485.8850, 18540.00
487.2180, 18800.00
488.5510, 18800.00
489.8830, 19050.00
491.2150, 19210.00
492.5470, 19230.00
493.8790, 19190.00
495.2100, 19210.00
496.5420, 19410.00
497.8730, 19140.00
499.2030, 19380.00
500.5340, 19210.00
501.8640, 19260.00
503.1940, 19250.00
504.5240, 19190.00
505.8540, 19330.00
507.1830, 19490.00
508.5120, 19330.00
509.8410, 19790.00
511.1700, 19710.00
512.4980, 20040.00
513.8260, 20400.00
515.1540, 20370.00
516.4820, 20630.00
517.8100, 21210.00
519.1370, 21570.00
520.4640, 21840.00
521.7910, 22640.00
523.1180, 23350.00
524.4440, 23980.00
525.7700, 25630.00
527.0960, 27660.00
528.4220, 30510.00
529.7470, 33610.00
531.0720, 37100.00
532.3970, 38960.00
533.7220, 39250.00
535.0470, 36920.00
536.3710, 34030.00
537.6950, 30620.00
539.0190, 28180.00
540.3430, 25820.00
541.6660, 24340.00
542.9890, 23080.00
544.3120, 22130.00
545.6350, 21510.00
546.9570, 20890.00
548.2800, 20800.00
549.6020, 20340.00
550.9230, 20040.00
552.2450, 20110.00
553.5660, 19630.00
554.8870, 19860.00
556.2080, 19450.00
557.5290, 19520.00
558.8490, 19640.00
560.1700, 19290.00
561.4900, 19570.00
562.8090, 19370.00
564.1290, 19360.00
565.4480, 19290.00
566.7670, 19340.00
568.0860, 19380.00
569.4050, 19350.00
570.7230, 19390.00
572.0410, 19420.00
573.3590, 19340.00
574.6770, 19400.00
575.9940, 19400.00
577.3120, 19390.00
578.6290, 19530.00
579.9450, 19410.00
581.2620, 19620.00
582.5780, 19350.00
583.8940, 19770.00
585.2100, 19580.00
586.5260, 19620.00
587.8410, 19790.00
589.1570, 19610.00
590.4710, 19780.00
591.7860, 19720.00
593.1010, 19740.00
594.4150, 19970.00
595.7290, 19810.00
597.0430, 20250.00
598.3570, 20110.00
599.6700, 20200.00
600.9830, 20290.00
602.2960, 20140.00
603.6090, 20350.00
604.9210, 20140.00
606.2340, 20130.00
607.5460, 20260.00
608.8570, 20000.00
610.1690, 20060.00
611.4800, 20010.00
612.7910, 20140.00
614.1020, 20080.00
615.4130, 20140.00
616.7230, 20260.00
618.0340, 20130.00
619.3440, 20150.00
620.6530, 20290.00
621.9630, 20150.00
623.2720, 20330.00
624.5810, 20130.00
625.8900, 20290.00
627.1990, 20370.00
628.5070, 20240.00
629.8160, 20460.00
631.1240, 20370.00
632.4310, 20360.00
633.7390, 20480.00
635.0460, 20320.00
636.3530, 20740.00
637.6600, 20450.00
638.9670, 20620.00
640.2730, 20650.00
641.5790, 20680.00
642.8850, 20670.00
644.1910, 20730.00
645.4960, 20680.00
646.8020, 20730.00
648.1070, 20773.04
649.4120, 20765.95
650.7160, 20880.00
652.0210, 20860.00
653.3250, 20900.00
654.6290, 21080.00
655.9320, 21110.00
657.2360, 21000.00
658.5390, 21180.00
659.8420, 21170.00
661.1450, 21160.00
662.4480, 21360.00
663.7500, 21520.00
665.0520, 21380.00
666.3540, 21270.00
667.6560, 21390.00
668.9570, 21590.00
670.2580, 21610.00
671.5590, 21660.00
672.8600, 21780.00
674.1610, 21570.00
675.4610, 21830.00
676.7610, 21690.00
678.0610, 21610.00
679.3610, 21600.00
680.6600, 21840.00
681.9600, 22190.00
683.2590, 21820.00
684.5570, 22250.00
685.8560, 22030.00
687.1540, 22170.00
688.4530, 22510.00
689.7500, 22430.00
691.0480, 22630.00
692.3460, 22720.00
693.6430, 22640.00
694.9400, 22980.00
696.2370, 23080.00
697.5330, 23240.00
698.8300, 23450.00
700.1260, 23690.00
701.4220, 23920.00
702.7170, 24000.00
704.0130, 24070.00
705.3080, 24230.00
706.6030, 24140.00
707.8980, 24160.00
709.1920, 23990.00
710.4870, 23970.00
711.7810, 23710.00
713.0750, 23450.00
714.3680, 23940.00
715.6620, 23740.00
716.9550, 23540.00
718.2480, 23990.00
719.5410, 23710.00
720.8340, 24050.00
722.1260, 23800.00
723.4180, 24130.00
724.7100, 24350.00
726.0020, 23980.00
727.2930, 24430.00
728.5840, 24050.00
729.8750, 23860.00
731.1660, 23930.00
732.4570, 23520.00
733.7470, 23830.00
735.0370, 23360.00
736.3270, 23440.00
737.6170, 23500.00
738.9070, 23420.00
740.1960, 23450.00
741.4850, 23370.00
742.7740, 23260.00
744.0620, 23270.00
745.3510, 23340.00
746.6390, 23460.00
747.9270, 23450.00
749.2150, 23300.00
750.5020, 23550.00
751.7890, 23480.00
753.0760, 23670.00
754.3630, 23670.00
755.6500, 23500.00
756.9360, 23880.00
758.2230, 23460.00
759.5090, 23810.00
760.7940, 23720.00
762.0800, 23700.00
763.3650, 23770.00
764.6500, 23940.00
765.9350, 23850.00
767.2200, 23990.00
768.5040, 23580.00
769.7880, 23890.00
771.0720, 23970.00
772.3560, 23920.00
773.6400, 24200.00
774.9230, 23800.00
776.2060, 24110.00
777.4890, 24140.00
778.7720, 23850.00
780.0540, 23880.00
781.3370, 24080.00
782.6190, 24050.00
783.9000, 24190.00
785.1820, 24240.00
786.4630, 24290.00
787.7450, 24360.00
789.0250, 24370.00
790.3060, 24420.00
791.5870, 24490.00
792.8670, 24620.00
794.1470, 24613.86
795.4270, 24740.00
796.7070, 24680.00
797.9860, 24590.00
799.2650, 24700.00
800.5440, 24510.00
801.8230, 24710.00
803.1010, 24840.00
804.3800, 24600.00
805.6580, 24940.00
806.9360, 24800.00
808.2130, 24940.00
809.4910, 24980.00
810.7680, 24850.00
812.0450, 24967.88
813.3220, 24870.00
814.5990, 25090.00
815.8750, 25030.00
817.1510, 25210.00
818.4270, 25300.00
819.7030, 25060.00
820.9780, 25180.00
822.2530, 25410.00
823.5290, 25220.00
824.8030, 25390.00
826.0780, 25340.00
827.3520, 25360.00
828.6270, 25650.00
829.9010, 25440.00
831.1740, 25680.00
832.4480, 25650.00
833.7210, 25740.00
834.9940, 26050.00
836.2670, 25520.00
837.5400, 25910.00
838.8120, 25680.00
840.0850, 25820.00
841.3570, 26010.00
842.6290, 25870.00
843.9000, 26160.00
845.1720, 26170.00
846.4430, 25900.00
847.7140, 26380.00
848.9840, 26090.00
850.2550, 26190.00
851.5250, 26190.00
852.7950, 26150.00
854.0650, 26520.00
855.3350, 26430.00
856.6040, 26520.00
857.8740, 26460.00
859.1430, 26550.00
860.4110, 26640.00
861.6800, 26270.00
862.9480, 26480.00
864.2170, 26960.00
865.4840, 26220.00
866.7520, 26950.00
868.0200, 26740.00
869.2870, 26840.00
870.5540, 26880.00
871.8210, 26730.00
873.0880, 27040.00
874.3540, 26830.00
875.6200, 26880.00
876.8860, 27020.00
878.1520, 26940.00
879.4180, 27100.00
880.6830, 27110.00
881.9480, 27170.00
883.2130, 27410.00
884.4780, 27190.00
885.7420, 27120.00
887.0070, 27410.00
888.2710, 27190.00
889.5350, 27350.00
890.7980, 27420.00
892.0620, 27500.00
893.3250, 27632.77
894.5880, 27340.00
895.8510, 27780.00
897.1130, 27670.00
898.3760, 27550.00
899.6380, 27780.00
900.9000, 27790.00
902.1610, 28030.00
903.4230, 27870.00
904.6840, 27740.00
905.9450, 28210.00
907.2060, 27830.00
908.4670, 27960.00
909.7270, 28360.00
910.9870, 28010.00
912.2470, 28570.00
913.5070, 28130.00
914.7670, 28150.00
916.0260, 28220.00
917.2850, 28230.00
918.5440, 28720.00
919.8030, 28420.00
921.0620, 28470.00
922.3200, 28770.00
923.5780, 28330.00
924.8360, 28820.00
926.0940, 28710.00
927.3510, 28840.00
928.6080, 28830.00
929.8650, 28870.00
931.1220, 28860.00
932.3790, 29010.00
933.6350, 29070.00
934.8910, 29910.00
936.1470, 29180.00
937.4030, 29200.00
938.6590, 30040.00
939.9140, 29720.00
941.1690, 29680.00
942.4240, 29470.00
943.6790, 29410.00
944.9330, 29840.00
946.1880, 29520.00
947.4420, 29790.00
948.6960, 29980.00
949.9490, 29870.00
951.2030, 29910.00
952.4560, 30070.00
953.7090, 29960.00
954.9620, 30370.00
956.2140, 30230.00
957.4670, 30380.00
958.7190, 30710.00
959.9710, 31090.00
961.2220, 31550.00
962.4740, 31560.00
963.7250, 32440.00
964.9760, 32540.00
966.2270, 33070.00
967.4780, 33120.00
968.7290, 32970.00
969.9790, 32720.00
971.2290, 32400.00
972.4790, 31840.00
973.7280, 31780.00
974.9780, 31610.00
976.2270, 31320.00
977.4760, 31760.00
978.7250, 31160.00
979.9730, 31320.00
981.2220, 31430.00
982.4700, 30920.00
983.7180, 31680.00
984.9660, 31260.00
986.2130, 31260.00
987.4600, 31600.00
988.7080, 31520.00
989.9540, 32040.00
991.2010, 31880.00
992.4480, 32080.00
993.6940, 32620.00
994.9400, 32200.00
996.1860, 32400.00
997.4310, 32600.00
998.6770, 32090.00
999.9220, 32260.00
1001.167, 32250.00
1002.412, 32010.00
1003.657, 32390.00
1004.901, 31990.00
1006.145, 32490.00
1007.389, 32480.00
1008.633, 32430.00
1009.876, 32730.00
1011.120, 32350.00
1012.363, 32970.00
1013.606, 32530.00
1014.848, 32690.00
1016.091, 33090.00
1017.333, 33000.00
1018.575, 33450.00
1019.817, 33970.00
1021.059, 34410.00
1022.300, 35210.00
1023.542, 35550.00
1024.783, 35930.00
1026.024, 35910.00
1027.264, 35320.00
1028.505, 34980.00
1029.745, 35140.00
1030.985, 34310.00
1032.225, 34860.00
1033.464, 34590.00
1034.704, 34570.00
1035.943, 35030.00
1037.182, 35070.00
1038.420, 35370.00
1039.659, 35120.00
1040.897, 35110.00
1042.135, 35430.00
1043.373, 34850.00
1044.611, 34630.00
1045.849, 35050.00
1047.086, 34720.00
1048.323, 34630.00
1049.560, 34620.00
1050.797, 34380.00
1052.033, 34710.00
1053.269, 34410.00
1054.505, 34320.00
1055.741, 34600.00
1056.977, 34490.00
1058.212, 34700.00
1059.447, 34670.00
1060.682, 34640.00
1061.917, 34890.00
1063.152, 34930.00
1064.386, 35060.00
1065.620, 35390.00
1066.854, 35170.00
1068.088, 35500.00
1069.322, 35200.00
1070.555, 35470.00
1071.788, 35300.00
1073.021, 35180.00
1074.254, 35340.00
1075.487, 35410.00
1076.719, 35190.00
1077.951, 35110.00
1079.183, 35220.00
1080.415, 35110.00
1081.646, 35590.00
1082.877, 35420.00
1084.109, 35720.00
1085.339, 35890.00
1086.570, 35570.00
1087.801, 36040.00
1089.031, 35820.00
1090.261, 36090.00
1091.491, 35870.00
1092.720, 35400.00
1093.950, 36020.00
1095.179, 35630.00
1096.408, 35220.00
1097.637, 35620.00
1098.866, 34880.00
1100.094, 35380.00
1101.322, 35110.00
1102.550, 34880.00
1103.778, 35260.00
1105.006, 35100.00
1106.233, 35240.00
1107.460, 35210.00
1108.687, 34980.00
1109.914, 35200.00
1111.141, 35180.00
1112.367, 35130.00
1113.593, 35270.00
1114.819, 35270.00
1116.045, 35010.00
1117.270, 35660.00
1118.496, 35080.00
1119.721, 35380.00
1120.946, 35340.00
1122.170, 35280.00
1123.395, 35380.00
1124.619, 35150.00
1125.843, 35690.00
1127.067, 35450.00
1128.291, 35400.00
1129.514, 35750.00
1130.738, 35200.00
1131.961, 35360.00
1133.184, 35740.00
1134.406, 35610.00
1135.629, 35860.00
1136.851, 35680.00
1138.073, 35540.00
1139.295, 35930.00
1140.517, 35760.00
1141.738, 35800.00
1142.960, 36120.00
1144.181, 35690.00
1145.401, 36170.00
1146.622, 35950.00
1147.842, 35870.00
1149.063, 36330.00
1150.283, 36320.00
1151.503, 36150.00
1152.722, 36290.00
1153.942, 36010.00
1155.161, 36570.00
1156.380, 36130.00
1157.599, 36350.00
1158.817, 36550.00
1160.036, 36590.00
1161.254, 36490.00
1162.472, 36790.00
1163.690, 36440.00
1164.907, 36940.00
1166.125, 36760.00
1167.342, 36550.00
1168.559, 37030.00
1169.776, 36860.00
1170.992, 37030.00
1172.209, 37070.00
1173.425, 36700.00
1174.641, 37320.00
1175.857, 37010.00
1177.072, 36980.00
1178.287, 37330.00
1179.503, 37150.00
1180.718, 37030.00
1181.932, 37660.00
1183.147, 37340.00
1184.361, 37490.00
1185.575, 37390.00
1186.789, 37550.00
1188.003, 37820.00
1189.217, 37370.00
1190.430, 37590.00
1191.643, 37880.00
1192.856, 37800.00
1194.069, 37980.00
1195.281, 37660.00
1196.494, 37660.00
1197.706, 38340.00
1198.918, 38300.00
1200.130, 37910.00
1201.341, 38400.00
1202.552, 37840.00
1203.764, 38270.00
1204.974, 38340.00
1206.185, 38340.00
1207.396, 38860.00
1208.606, 38260.00
1209.816, 38460.00
1211.026, 38870.00
1212.236, 38550.00
1213.445, 38480.00
1214.655, 38580.00
1215.864, 38770.00
1217.073, 39030.00
1218.281, 38720.00
1219.490, 38780.00
1220.698, 38880.00
1221.906, 38840.00
1223.114, 38760.00
1224.322, 39230.00
1225.529, 38940.00
1226.737, 39200.00
1227.944, 39130.00
1229.151, 38880.00
1230.358, 39500.00
1231.564, 39340.00
1232.770, 39440.00
1233.976, 39490.00
1235.182, 39440.00
1236.388, 39600.00
1237.594, 39630.00
1238.799, 39520.00
1240.004, 39720.00
1241.209, 39700.00
1242.414, 39520.00
1243.618, 40200.00
1244.822, 39500.00
1246.027, 40030.00
1247.230, 40070.00
1248.434, 39790.00
1249.638, 40020.00
1250.841, 40110.00
1252.044, 40040.00
1253.247, 39970.00
1254.450, 39960.00
1255.652, 40170.00
1256.855, 40340.00
1258.057, 40440.00
1259.259, 40610.00
1260.460, 40350.00
1261.662, 40350.00
1262.863, 40740.00
1264.064, 40330.00
1265.265, 40740.00
1266.466, 40600.00
1267.666, 40820.00
1268.867, 40660.00
1270.067, 40980.00
1271.267, 40570.00
1272.467, 41150.00
1273.666, 40910.00
1274.865, 41050.00
1276.065, 41140.00
1277.264, 40680.00
1278.462, 40840.00
1279.661, 40950.00
1280.859, 40990.00
1282.057, 41260.00
1283.255, 41130.00
1284.453, 41370.00
1285.651, 41330.00
1286.848, 41260.00
1288.045, 41750.00
1289.242, 41530.00
1290.439, 41170.00
1291.635, 41530.00
1292.832, 41690.00
1294.028, 41560.00
1295.224, 41730.00
1296.420, 41400.00
1297.615, 42020.00
1298.811, 41760.00
1300.006, 41730.00
1301.201, 42020.00
1302.395, 42040.00
1303.590, 42070.00
1304.784, 41960.00
1305.979, 41880.00
1307.173, 42110.00
1308.366, 42470.00
1309.560, 42341.41
1310.753, 42550.00
1311.947, 42330.00
1313.140, 42350.00
1314.332, 42420.00
1315.525, 42400.00
1316.717, 42547.46
1317.910, 42850.00
1319.102, 42850.00
1320.293, 42790.00
1321.485, 42970.00
1322.677, 42800.00
1323.868, 43100.00
1325.059, 42670.00
1326.250, 43150.00
1327.440, 43350.00
1328.631, 42920.00
1329.821, 43020.00
1331.011, 43410.00
1332.201, 43440.00
1333.391, 43470.00
1334.580, 43650.00
1335.769, 43750.00
1336.958, 43740.00
1338.147, 43600.00
1339.336, 43630.00
1340.524, 44140.00
1341.713, 43870.00
1342.901, 43660.00
1344.089, 44370.00
1345.276, 44120.00
1346.464, 44930.00
1347.651, 44340.00
1348.838, 44220.00
1350.025, 44610.00
1351.212, 44840.00
1352.399, 44270.00
1353.585, 45050.00
1354.771, 44720.00
1355.957, 44680.00
1357.143, 45300.00
1358.328, 44990.00
1359.514, 45260.00
1360.699, 44900.00
1361.884, 45410.00
1363.069, 45470.00
1364.253, 45020.00
1365.437, 45400.00
1366.622, 45680.00
1367.806, 45270.00
1368.989, 45840.00
1370.173, 45800.00
1371.356, 45620.00
1372.540, 46330.00
1373.723, 45810.00
1374.906, 45900.00
1376.088, 46330.00
1377.271, 46180.00
1378.453, 46190.00
1379.635, 46490.00
1380.817, 46510.00
1381.998, 46650.00
1383.180, 46380.00
1384.361, 46380.00
1385.542, 46990.00
1386.723, 46720.00
1387.904, 47080.00
1389.084, 46970.00
1390.265, 47100.00
1391.445, 47000.00
1392.625, 46930.00
1393.804, 46860.00
1394.984, 47500.00
1396.163, 47200.00
1397.342, 47150.00
1398.521, 47540.00
1399.700, 47340.00
1400.879, 47480.00
1402.057, 47640.00
1403.235, 47230.00
1404.413, 47690.00
1405.591, 47900.00
1406.768, 47490.00
1407.946, 48070.00
1409.123, 48090.00
1410.300, 47910.00
1411.477, 48300.00
1412.653, 47860.00
1413.830, 48120.00
1415.006, 48470.00
1416.182, 48150.00
1417.358, 48400.00
1418.534, 48600.00
1419.709, 48520.00
1420.884, 48820.00
1422.059, 48750.00
1423.234, 48760.00
1424.409, 48940.00
1425.584, 48740.00
1426.758, 49070.00
1427.932, 48830.00
1429.106, 49070.00
1430.280, 49300.00
1431.453, 49790.00
1432.626, 48980.00
1433.800, 49510.00
1434.973, 49640.00
1436.145, 49470.00
1437.318, 50270.00
1438.490, 49380.00
1439.662, 49900.00
1440.834, 50310.00
1442.006, 49820.00
1443.178, 50070.00
1444.349, 50850.00
1445.521, 50080.00
1446.692, 50640.00
1447.862, 50560.00
1449.033, 50610.00
1450.204, 50530.00
1451.374, 50730.00
1452.544, 50746.44
1453.714, 50950.00
1454.883, 50910.00
1456.053, 50900.00
1457.222, 50942.88
1458.391, 51010.00
1459.560, 51200.00
1460.729, 51286.67
1461.898, 51382.32
1463.066, 51550.00
1464.234, 51640.00
1465.402, 51720.00
1466.570, 52030.00
1467.738, 51670.00
1468.905, 51670.00
1470.072, 51990.00
1471.239, 51980.00
1472.406, 51880.00
1473.573, 52120.00
1474.739, 52610.00
1475.905, 52190.00
1477.071, 52540.00
1478.237, 52390.00
1479.403, 52270.00
1480.568, 52340.00
1481.734, 52290.00
1482.899, 52472.19
1484.064, 52810.00
1485.229, 52760.00
1486.393, 52760.00
1487.557, 52580.00
1488.722, 52810.00
1489.886, 53160.00
1491.049, 52520.00
1492.213, 53390.00
1493.376, 53060.00
1494.540, 53000.00
1495.703, 53160.00
1496.865, 53330.00
1498.028, 52760.00
1499.191, 53790.00
1500.353, 53060.00
1501.515, 53860.00
1502.677, 53490.00
1503.838, 53330.00
1505.000, 53530.00
1506.161, 53860.00
1507.322, 53370.00
1508.483, 53820.00
1509.644, 53760.00
1510.805, 53630.00
1511.965, 54810.00
1513.125, 53720.00
1514.285, 53960.00
1515.445, 54240.00
1516.605, 53650.00
1517.764, 54300.00
1518.923, 54130.00
1520.082, 53840.00
1521.241, 54750.00
1522.400, 54350.00
1523.558, 54340.00
1524.717, 55100.00
##END=



