##NAMES=Natrolite
##RRUFFID=R040022
##IDEAL CHEMISTRY=Na_2_(Si_3_Al_2_)O_10_&#183;2H_2_O
##LOCALITY=Patterson, Passaic County, New Jersey, USA
##OWNER=RRUFF
##SOURCE=University of Arizona Mineral Museum
##DESCRIPTION=White fine fibrous mass
##STATUS=The identification of this mineral has been confirmed by X-ray diffraction and chemical analysis
##URL=rruff.info/R040022
##MEASURED CHEMISTRY=(Na_1.87_Ca_0.08_[box]_0.05_)_Σ=2_(Si_2.97_Al_2.03_)O_10_·1.95H_2_O; H_2_O estimated by difference
58.452, 5.614e+003
59.86000, 5605.000
61.26800, 5938.000
62.67500, 6500.000
64.08300, 6926.000
65.48900, 6811.000
66.89600, 6360.000
68.30200, 5934.000
69.70900, 6076.000
71.11400, 6779.000
72.52000, 8165.000
73.92500, 11520.00
75.33100, 14750.00
76.73500, 15070.00
78.14000, 11920.00
79.54400, 9088.000
80.94900, 7755.000
82.35200, 7115.000
83.75600, 6880.000
85.15900, 6660.000
86.56300, 6754.000
87.96500, 6754.000
89.36800, 6876.000
90.77000, 7046.000
92.17300, 7070.000
93.57400, 7078.000
94.97600, 7216.000
96.37800, 7119.000
97.77900, 7233.000
99.18000, 7410.000
100.5800, 7351.000
101.9810, 7538.000
103.3810, 7600.000
104.7810, 7814.000
106.1800, 8067.000
107.5800, 8256.000
108.9790, 8666.000
110.3780, 9352.000
111.7760, 9800.000
113.1750, 10590.00
114.5730, 11610.00
115.9710, 12100.00
117.3690, 11460.00
118.7660, 10730.00
120.1630, 10290.00
121.5600, 9968.000
122.9570, 9565.000
124.3530, 8887.000
125.7490, 8262.000
127.1450, 7944.000
128.5410, 7648.000
129.9370, 7674.000
131.3320, 7745.000
132.7270, 7834.000
134.1210, 8010.000
135.5160, 8441.000
136.9100, 8731.000
138.3040, 9135.000
139.6980, 9570.000
141.0910, 9728.000
142.4840, 9779.000
143.8770, 9495.000
145.2700, 9340.000
146.6630, 9008.000
148.0550, 8053.000
149.4470, 7643.000
150.8390, 7566.000
152.2300, 7619.000
153.6210, 7865.000
155.0120, 8426.000
156.4030, 8923.000
157.7940, 9636.000
159.1840, 9990.000
160.5740, 10430.00
161.9640, 10420.00
163.3530, 10060.00
164.7430, 9399.000
166.1320, 8794.000
167.5200, 8244.000
168.9090, 7758.000
170.2970, 7364.000
171.6850, 7131.000
173.0730, 6902.000
174.4610, 6677.000
175.8480, 6447.000
177.2350, 6356.000
178.6220, 6272.000
180.0080, 6317.000
181.3950, 6239.000
182.7810, 6198.000
184.1670, 6268.000
185.5520, 6195.000
186.9380, 6010.000
188.3230, 5981.000
189.7080, 5846.000
191.0920, 5786.000
192.4770, 5790.000
193.8610, 5774.000
195.2450, 5838.000
196.6290, 5793.000
198.0120, 5894.000
199.3950, 5892.000
200.7780, 5967.000
202.1610, 6092.000
203.5430, 6156.000
204.9250, 6269.000
206.3070, 6284.000
207.6890, 6223.000
209.0700, 6066.000
210.4520, 5827.000
211.8330, 5711.000
213.2130, 5699.000
214.5940, 5618.000
215.9740, 5616.000
217.3540, 5609.000
218.7340, 5606.000
220.1130, 5504.000
221.4930, 5407.000
222.8720, 5386.000
224.2510, 5254.000
225.6290, 5187.000
227.0070, 5211.000
228.3850, 5151.000
229.7630, 5198.000
231.1410, 5133.000
232.5180, 5190.000
233.8950, 5260.000
235.2720, 5390.000
236.6490, 5543.000
238.0250, 5582.000
239.4010, 5631.000
240.7770, 5638.000
242.1530, 5617.000
243.5280, 5455.000
244.9030, 5382.000
246.2780, 5195.000
247.6530, 5083.000
249.0270, 5070.000
250.4020, 4998.000
251.7750, 5042.000
253.1490, 5020.000
254.5230, 5071.000
255.8960, 5000.000
257.2690, 5004.000
258.6420, 5039.000
260.0140, 5015.000
261.3860, 5092.000
262.7580, 5053.000
264.1300, 5170.000
265.5020, 5240.000
266.8730, 5206.000
268.2440, 5253.000
269.6150, 5264.000
270.9850, 5279.000
272.3560, 5303.000
273.7260, 5295.000
275.0960, 5355.000
276.4650, 5254.000
277.8350, 5247.000
279.2040, 5262.000
280.5730, 5272.000
281.9410, 5253.000
283.3100, 5240.000
284.6780, 5258.445
286.0460, 5283.000
287.4130, 5292.000
288.7810, 5376.000
290.1480, 5403.000
291.5150, 5548.000
292.8820, 5499.000
294.2480, 5581.000
295.6150, 5594.000
296.9810, 5571.000
298.3460, 5710.000
299.7120, 5785.000
301.0770, 6063.000
302.4420, 6247.000
303.8070, 6460.000
305.1720, 6549.000
306.5360, 6602.000
307.9000, 6433.000
309.2640, 6142.000
310.6280, 5885.000
311.9910, 5540.000
313.3540, 5586.000
314.7170, 5520.000
316.0800, 5347.000
317.4420, 5366.000
318.8040, 5324.000
320.1660, 5349.000
321.5280, 5357.191
322.8890, 5441.000
324.2510, 5427.000
325.6120, 5517.000
326.9720, 5626.000
328.3330, 5636.000
329.6930, 5720.000
331.0530, 5773.000
332.4130, 5706.000
333.7730, 5779.000
335.1320, 5715.000
336.4910, 5703.000
337.8500, 5674.000
339.2080, 5649.000
340.5670, 5682.000
341.9250, 5663.000
343.2830, 5752.000
344.6400, 5712.000
345.9980, 5784.000
347.3550, 5716.000
348.7120, 5765.000
350.0690, 5886.000
351.4250, 5942.000
352.7810, 6038.118
354.1370, 6128.929
355.4930, 6219.000
356.8490, 6290.000
358.2040, 6368.000
359.5590, 6414.000
360.9140, 6373.000
362.2680, 6256.000
363.6230, 6162.000
364.9770, 6004.000
366.3310, 5940.000
367.6840, 5763.000
369.0380, 5712.000
370.3910, 5676.000
371.7440, 5559.000
373.0970, 5647.000
374.4490, 5477.000
375.8010, 5618.000
377.1530, 5535.000
378.5050, 5474.000
379.8570, 5491.000
381.2080, 5414.000
382.5590, 5445.000
383.9100, 5495.000
385.2600, 5528.000
386.6110, 5521.000
387.9610, 5482.000
389.3110, 5521.000
390.6600, 5468.000
392.0100, 5569.000
393.3590, 5559.000
394.7080, 5604.000
396.0560, 5677.000
397.4050, 5604.000
398.7530, 5674.000
400.1010, 5638.000
401.4490, 5735.000
402.7960, 5806.000
404.1430, 5901.000
405.4900, 6039.000
406.8370, 6137.000
408.1840, 6318.000
409.5300, 6415.000
410.8760, 6474.000
412.2220, 6705.000
413.5680, 6694.000
414.9130, 6804.000
416.2580, 6772.000
417.6030, 6746.000
418.9480, 6629.000
420.2920, 6603.000
421.6370, 6640.000
422.9810, 6876.000
424.3240, 6663.033
425.6680, 7683.000
427.0110, 6760.000
428.3540, 6949.000
429.6970, 7876.000
431.0400, 7354.000
432.3820, 7413.000
433.7240, 7757.000
435.0660, 8171.000
436.4080, 8707.000
437.7490, 9488.000
439.0900, 10360.00
440.4310, 10840.00
441.7720, 11230.00
443.1130, 10920.00
444.4530, 10320.00
445.7930, 9635.000
447.1330, 8946.000
448.4720, 8449.000
449.8110, 8053.000
451.1510, 7562.000
452.4890, 7200.000
453.8280, 7063.000
455.1660, 6822.000
456.5050, 6707.000
457.8430, 6583.000
459.1800, 6565.000
460.5180, 6506.000
461.8550, 6443.000
463.1920, 6392.000
464.5290, 6493.000
465.8650, 6369.000
467.2020, 6427.000
468.5380, 6358.000
469.8730, 6414.000
471.2090, 6482.000
472.5440, 6367.000
473.8800, 6481.000
475.2140, 6408.000
476.5490, 6523.000
477.8840, 6541.000
479.2180, 6647.000
480.5520, 6654.000
481.8860, 6720.000
483.2190, 6777.000
484.5520, 6771.000
485.8850, 6929.000
487.2180, 6940.000
488.5510, 6905.000
489.8830, 6963.000
491.2150, 7063.000
492.5470, 7125.000
493.8790, 7109.000
495.2100, 7134.000
496.5420, 7234.000
497.8730, 7130.000
499.2030, 7387.000
500.5340, 7348.000
501.8640, 7568.000
503.1940, 7612.000
504.5240, 7661.000
505.8540, 7838.000
507.1830, 7942.000
508.5120, 8103.000
509.8410, 8292.000
511.1700, 8388.000
512.4980, 8733.000
513.8260, 8768.000
515.1540, 9052.000
516.4820, 9253.000
517.8100, 9498.000
519.1370, 9715.000
520.4640, 9878.000
521.7910, 10330.00
523.1180, 10920.00
524.4440, 11660.00
525.7700, 12960.00
527.0960, 14580.00
528.4220, 16930.00
529.7470, 19290.00
531.0720, 22400.00
532.3970, 23210.00
533.7220, 23240.00
535.0470, 21510.00
536.3710, 19140.00
537.6950, 16530.00
539.0190, 14450.00
540.3430, 13250.00
541.6660, 11230.00
542.9890, 10200.00
544.3120, 9480.000
545.6350, 8861.000
546.9570, 8411.000
548.2800, 8358.000
549.6020, 7912.000
550.9230, 7757.000
552.2450, 7680.000
553.5660, 7492.000
554.8870, 7493.000
556.2080, 7292.000
557.5290, 7355.000
558.8490, 7372.000
560.1700, 7162.000
561.4900, 7209.000
562.8090, 7152.000
564.1290, 7143.000
565.4480, 7077.000
566.7670, 7071.000
568.0860, 7002.000
569.4050, 6973.000
570.7230, 6985.000
572.0410, 6972.000
573.3590, 6981.000
574.6770, 6976.000
575.9940, 6927.000
577.3120, 6947.000
578.6290, 6977.000
579.9450, 6860.000
581.2620, 6919.000
582.5780, 6926.000
583.8940, 6984.000
585.2100, 6972.000
586.5260, 7045.000
587.8410, 6972.000
589.1570, 6917.000
590.4710, 7036.000
591.7860, 6890.000
593.1010, 7030.000
594.4150, 6986.000
595.7290, 7022.000
597.0430, 7142.000
598.3570, 7050.000
599.6700, 7123.000
600.9830, 7104.000
602.2960, 7035.000
603.6090, 7109.000
604.9210, 7009.000
606.2340, 7026.000
607.5460, 7106.000
608.8570, 6966.000
610.1690, 7097.000
611.4800, 7045.000
612.7910, 7024.000
614.1020, 7012.000
615.4130, 6948.000
616.7230, 7051.000
618.0340, 7046.000
619.3440, 7016.000
620.6530, 7084.000
621.9630, 7076.000
623.2720, 7109.000
624.5810, 7035.000
625.8900, 7070.000
627.1990, 7111.000
628.5070, 7042.000
629.8160, 7082.000
631.1240, 7063.000
632.4310, 7159.000
633.7390, 7113.000
635.0460, 7102.000
636.3530, 7197.000
637.6600, 7058.000
638.9670, 7193.000
640.2730, 7113.000
641.5790, 7153.000
642.8850, 7147.000
644.1910, 7152.000
645.4960, 7212.000
646.8020, 7146.000
648.1070, 7182.000
649.4120, 7209.000
650.7160, 7217.000
652.0210, 7238.000
653.3250, 7221.000
654.6290, 7225.000
655.9320, 7186.000
657.2360, 7208.111
658.5390, 7200.847
659.8420, 7246.000
661.1450, 7229.000
662.4480, 7260.000
663.7500, 7315.000
665.0520, 7350.000
666.3540, 7371.000
667.6560, 7341.000
668.9570, 7388.000
670.2580, 7354.000
671.5590, 7370.000
672.8600, 7376.000
674.1610, 7400.000
675.4610, 7408.474
676.7610, 7427.058
678.0610, 7452.000
679.3610, 7463.000
680.6600, 7526.000
681.9600, 7547.000
683.2590, 7620.000
684.5570, 7672.000
685.8560, 7618.000
687.1540, 7700.000
688.4530, 7815.000
689.7500, 7742.000
691.0480, 7895.000
692.3460, 7890.000
693.6430, 7911.000
694.9400, 8003.000
696.2370, 8061.000
697.5330, 8057.000
698.8300, 8215.000
700.1260, 8214.000
701.4220, 8368.000
702.7170, 8287.000
704.0130, 8311.000
705.3080, 8270.000
706.6030, 8240.000
707.8980, 8264.000
709.1920, 8258.000
710.4870, 8184.000
711.7810, 8288.000
713.0750, 8199.000
714.3680, 8276.000
715.6620, 8273.000
716.9550, 8148.000
718.2480, 8190.000
719.5410, 8193.000
720.8340, 8214.000
722.1260, 8203.000
723.4180, 8240.000
724.7100, 8192.000
726.0020, 8062.000
727.2930, 8313.000
728.5840, 8088.000
729.8750, 8111.000
731.1660, 8079.000
732.4570, 7958.000
733.7470, 7980.000
735.0370, 7989.000
736.3270, 7946.000
737.6170, 7990.000
738.9070, 7872.000
740.1960, 7975.000
741.4850, 7910.000
742.7740, 7904.000
744.0620, 7901.000
745.3510, 7928.000
746.6390, 7948.000
747.9270, 7878.000
749.2150, 7880.000
750.5020, 8020.000
751.7890, 7933.000
753.0760, 8034.000
754.3630, 7990.000
755.6500, 7947.000
756.9360, 8108.000
758.2230, 7980.000
759.5090, 7991.000
760.7940, 7985.000
762.0800, 8075.000
763.3650, 8013.000
764.6500, 8100.000
765.9350, 8031.000
767.2200, 8131.000
768.5040, 7900.000
769.7880, 8061.000
771.0720, 8032.000
772.3560, 8113.000
773.6400, 8046.000
774.9230, 8064.000
776.2060, 8011.000
777.4890, 8019.000
778.7720, 7952.000
780.0540, 7936.000
781.3370, 8035.000
782.6190, 8085.000
783.9000, 8100.000
785.1820, 8129.000
786.4630, 8111.000
787.7450, 8199.000
789.0250, 8158.000
790.3060, 8162.000
791.5870, 8170.000
792.8670, 8233.000
794.1470, 8151.000
795.4270, 8192.000
796.7070, 8143.000
797.9860, 8184.000
799.2650, 8199.000
800.5440, 8156.000
801.8230, 8281.000
803.1010, 8269.000
804.3800, 8247.000
805.6580, 8310.000
806.9360, 8331.000
808.2130, 8347.068
809.4910, 8383.624
810.7680, 8344.000
812.0450, 8441.000
813.3220, 8341.000
814.5990, 8385.000
815.8750, 8385.000
817.1510, 8395.000
818.4270, 8433.710
819.7030, 8357.000
820.9780, 8448.000
822.2530, 8493.000
823.5290, 8392.000
824.8030, 8415.000
826.0780, 8484.000
827.3520, 8477.000
828.6270, 8521.000
829.9010, 8548.000
831.1740, 8473.000
832.4480, 8561.000
833.7210, 8617.000
834.9940, 8582.000
836.2670, 8490.000
837.5400, 8589.000
838.8120, 8579.000
840.0850, 8654.000
841.3570, 8583.000
842.6290, 8654.000
843.9000, 8653.000
845.1720, 8625.000
846.4430, 8675.000
847.7140, 8757.000
848.9840, 8672.000
850.2550, 8731.000
851.5250, 8630.000
852.7950, 8658.000
854.0650, 8817.000
855.3350, 8684.000
856.6040, 8781.000
857.8740, 8789.000
859.1430, 8773.000
860.4110, 8848.000
861.6800, 8736.000
862.9480, 8775.000
864.2170, 8816.000
865.4840, 8710.000
866.7520, 8948.000
868.0200, 8822.000
869.2870, 8857.000
870.5540, 8918.000
871.8210, 8823.000
873.0880, 8953.000
874.3540, 8828.000
875.6200, 8916.000
876.8860, 8937.000
878.1520, 8953.000
879.4180, 8962.000
880.6830, 8968.000
881.9480, 8975.000
883.2130, 8979.303
884.4780, 8982.662
885.7420, 8987.000
887.0070, 8996.000
888.2710, 9002.000
889.5350, 9028.000
890.7980, 8948.000
892.0620, 8991.178
893.3250, 9055.000
894.5880, 9024.000
895.8510, 9097.000
897.1130, 9134.000
898.3760, 9180.000
899.6380, 9157.000
900.9000, 9111.000
902.1610, 9169.000
903.4230, 9209.000
904.6840, 9056.000
905.9450, 9306.000
907.2060, 9206.000
908.4670, 9224.000
909.7270, 9394.000
910.9870, 9162.000
912.2470, 9482.000
913.5070, 9226.000
914.7670, 9307.000
916.0260, 9312.000
917.2850, 9270.000
918.5440, 9365.000
919.8030, 9377.000
921.0620, 9317.000
922.3200, 9498.000
923.5780, 9253.000
924.8360, 9471.000
926.0940, 9446.000
927.3510, 9523.000
928.6080, 9468.000
929.8650, 9486.000
931.1220, 9572.000
932.3790, 9584.000
933.6350, 9505.000
934.8910, 9666.000
936.1470, 9534.000
937.4030, 9600.000
938.6590, 9701.000
939.9140, 9650.000
941.1690, 9736.000
942.4240, 9702.000
943.6790, 9621.000
944.9330, 9809.000
946.1880, 9659.000
947.4420, 9803.000
948.6960, 9782.000
949.9490, 9704.000
951.2030, 9775.000
952.4560, 9716.000
953.7090, 9752.000
954.9620, 9924.000
956.2140, 9895.000
957.4670, 9925.000
958.7190, 9886.000
959.9710, 10030.00
961.2220, 10030.00
962.4740, 10040.00
963.7250, 10260.00
964.9760, 10150.00
966.2270, 10200.00
967.4780, 10270.00
968.7290, 10170.00
969.9790, 10360.00
971.2290, 10300.00
972.4790, 10250.00
973.7280, 10330.00
974.9780, 10360.00
976.2270, 10290.00
977.4760, 10380.00
978.7250, 10280.00
979.9730, 10330.00
981.2220, 10340.00
982.4700, 10240.00
983.7180, 10370.00
984.9660, 10280.00
986.2130, 10230.00
987.4600, 10290.00
988.7080, 10280.00
989.9540, 10440.00
991.2010, 10350.00
992.4480, 10390.00
993.6940, 10500.00
994.9400, 10460.00
996.1860, 10540.00
997.4310, 10610.00
998.6770, 10440.00
999.9220, 10540.00
1001.167, 10590.00
1002.412, 10530.00
1003.657, 10620.00
1004.901, 10670.00
1006.145, 10760.00
1007.389, 10770.00
1008.633, 10740.00
1009.876, 10810.00
1011.120, 10690.00
1012.363, 10820.00
1013.606, 10760.00
1014.848, 10730.00
1016.091, 10940.00
1017.333, 10830.00
1018.575, 11000.00
1019.817, 11030.00
1021.059, 11090.00
1022.300, 11260.00
1023.542, 11320.00
1024.783, 11270.00
1026.024, 11290.00
1027.264, 11310.00
1028.505, 11350.00
1029.745, 11450.00
1030.985, 11410.00
1032.225, 11750.00
1033.464, 11870.00
1034.704, 12180.00
1035.943, 12630.00
1037.182, 12770.00
1038.420, 13070.00
1039.659, 12850.00
1040.897, 12590.00
1042.135, 12520.00
1043.373, 12040.00
1044.611, 11920.00
1045.849, 11750.00
1047.086, 11600.00
1048.323, 11540.00
1049.560, 11320.00
1050.797, 11360.00
1052.033, 11380.00
1053.269, 11240.00
1054.505, 11310.00
1055.741, 11230.00
1056.977, 11240.00
1058.212, 11210.00
1059.447, 11090.00
1060.682, 11130.00
1061.917, 11180.00
1063.152, 11210.00
1064.386, 11130.00
1065.620, 11150.00
1066.854, 11170.00
1068.088, 11440.00
1069.322, 11240.00
1070.555, 11340.00
1071.788, 11360.00
1073.021, 11310.00
1074.254, 11430.00
1075.487, 11550.00
1076.719, 11420.00
1077.951, 11450.00
1079.183, 11530.00
1080.415, 11450.00
1081.646, 11510.00
1082.877, 11500.00
1084.109, 11620.00
1085.339, 11610.00
1086.570, 11580.00
1087.801, 11600.00
1089.031, 11500.00
1090.261, 11630.00
1091.491, 11480.00
1092.720, 11500.00
1093.950, 11630.00
1095.179, 11520.00
1096.408, 11460.00
1097.637, 11510.00
1098.866, 11410.00
1100.094, 11590.00
1101.322, 11480.00
1102.550, 11430.00
1103.778, 11480.00
1105.006, 11360.00
1106.233, 11500.00
1107.460, 11440.00
1108.687, 11300.00
1109.914, 11470.00
1111.141, 11440.00
1112.367, 11550.00
1113.593, 11460.00
1114.819, 11340.00
1116.045, 11400.00
1117.270, 11480.00
1118.496, 11340.00
1119.721, 11590.00
1120.946, 11380.00
1122.170, 11500.00
1123.395, 11470.00
1124.619, 11330.00
1125.843, 11480.00
1127.067, 11530.00
1128.291, 11550.00
1129.514, 11560.00
1130.738, 11420.00
1131.961, 11480.00
1133.184, 11450.00
1134.406, 11490.00
1135.629, 11610.00
1136.851, 11510.00
1138.073, 11590.00
1139.295, 11730.00
1140.517, 11560.00
1141.738, 11570.00
1142.960, 11630.00
1144.181, 11520.00
1145.401, 11660.00
1146.622, 11540.00
1147.842, 11570.00
1149.063, 11780.00
1150.283, 11610.00
1151.503, 11650.00
1152.722, 11710.00
1153.942, 11580.00
1155.161, 11800.00
1156.380, 11700.00
1157.599, 11730.00
1158.817, 11740.00
1160.036, 11720.00
1161.254, 11780.00
1162.472, 11800.00
1163.690, 11780.00
1164.907, 11910.00
1166.125, 11910.00
1167.342, 11770.00
1168.559, 11960.00
1169.776, 11830.00
1170.992, 11920.00
1172.209, 11900.00
1173.425, 11910.00
1174.641, 11910.00
1175.857, 11940.00
1177.072, 11960.00
1178.287, 12020.00
1179.503, 11970.00
1180.718, 11920.00
1181.932, 12140.00
1183.147, 12050.00
1184.361, 12090.00
1185.575, 11970.00
1186.789, 12170.00
1188.003, 12150.00
1189.217, 12110.00
1190.430, 12180.00
1191.643, 12240.00
1192.856, 12130.00
1194.069, 12160.00
1195.281, 12130.00
1196.494, 12210.00
1197.706, 12310.00
1198.918, 12280.00
1200.130, 12230.00
1201.341, 12320.00
1202.552, 12190.00
1203.764, 12460.00
1204.974, 12250.00
1206.185, 12410.00
1207.396, 12270.00
1208.606, 12270.00
1209.816, 12340.00
1211.026, 12440.00
1212.236, 12400.00
1213.445, 12460.00
1214.655, 12457.80
1215.864, 12360.00
1217.073, 12430.00
1218.281, 12460.00
1219.490, 12420.00
1220.698, 12470.00
1221.906, 12460.00
1223.114, 12470.00
1224.322, 12550.00
1225.529, 12590.00
1226.737, 12510.00
1227.944, 12550.00
1229.151, 12470.00
1230.358, 12620.00
1231.564, 12510.00
1232.770, 12650.00
1233.976, 12580.00
1235.182, 12640.00
1236.388, 12630.00
1237.594, 12670.00
1238.799, 12650.00
1240.004, 12730.00
1241.209, 12680.00
1242.414, 12790.00
1243.618, 12840.00
1244.822, 12690.00
1246.027, 12780.00
1247.230, 12780.00
1248.434, 12760.00
1249.638, 12820.00
1250.841, 12800.00
1252.044, 12900.00
1253.247, 12780.00
1254.450, 12800.00
1255.652, 12890.00
1256.855, 12870.00
1258.057, 12930.00
1259.259, 13030.00
1260.460, 12840.00
1261.662, 12840.00
1262.863, 13050.00
1264.064, 12920.00
1265.265, 13000.00
1266.466, 12950.00
1267.666, 13060.00
1268.867, 12980.00
1270.067, 13100.00
1271.267, 13030.00
1272.467, 13200.00
1273.666, 13010.00
1274.865, 13110.00
1276.065, 13150.00
1277.264, 13000.00
1278.462, 13090.00
1279.661, 13070.00
1280.859, 13150.00
1282.057, 13190.00
1283.255, 13170.00
1284.453, 13160.00
1285.651, 13120.00
1286.848, 13170.00
1288.045, 13330.00
1289.242, 13180.00
1290.439, 13270.00
1291.635, 13190.00
1292.832, 13360.00
1294.028, 13200.00
1295.224, 13270.00
1296.420, 13140.00
1297.615, 13173.70
1298.811, 13300.00
1300.006, 13210.00
1301.201, 13480.00
1302.395, 13460.00
1303.590, 13460.00
1304.784, 13440.00
1305.979, 13370.00
1307.173, 13490.00
1308.366, 13560.00
1309.560, 13380.00
1310.753, 13650.00
1311.947, 13560.00
1313.140, 13440.00
1314.332, 13530.00
1315.525, 13620.00
1316.717, 13470.00
1317.910, 13550.00
1319.102, 13680.00
1320.293, 13610.00
1321.485, 13610.00
1322.677, 13660.00
1323.868, 13710.00
1325.059, 13690.00
1326.250, 13810.00
1327.440, 13880.00
1328.631, 13680.00
1329.821, 13850.00
1331.011, 13810.00
1332.201, 13780.00
1333.391, 13860.00
1334.580, 13890.00
1335.769, 14040.00
1336.958, 13960.00
1338.147, 13840.00
1339.336, 13940.00
1340.524, 14130.00
1341.713, 13930.00
1342.901, 14030.00
1344.089, 14100.00
1345.276, 14020.00
1346.464, 14250.00
1347.651, 14070.00
1348.838, 14090.00
1350.025, 14220.00
1351.212, 14230.00
1352.399, 14120.00
1353.585, 14260.00
1354.771, 14200.00
1355.957, 14270.00
1357.143, 14370.00
1358.328, 14310.00
1359.514, 14460.00
1360.699, 14310.00
1361.884, 14370.00
1363.069, 14500.00
1364.253, 14300.00
1365.437, 14410.00
1366.622, 14480.00
1367.806, 14420.00
1368.989, 14650.00
1370.173, 14560.00
1371.356, 14570.00
1372.540, 14770.00
1373.723, 14490.00
1374.906, 14630.00
1376.088, 14730.00
1377.271, 14590.00
1378.453, 14720.00
1379.635, 14650.00
1380.817, 14730.00
1381.998, 14940.00
1383.180, 14840.00
1384.361, 14720.00
1385.542, 14970.00
1386.723, 14710.00
1387.904, 14770.00
1389.084, 14980.00
1390.265, 15000.00
1391.445, 15010.00
1392.625, 15010.00
1393.804, 15017.79
1394.984, 15000.00
1396.163, 15040.00
1397.342, 15080.00
1398.521, 15140.00
1399.700, 15030.00
1400.879, 15000.00
1402.057, 15180.00
1403.235, 15010.00
1404.413, 15240.00
1405.591, 15310.00
1406.768, 15010.00
1407.946, 15260.00
1409.123, 15210.00
1410.300, 15330.00
1411.477, 15290.00
1412.653, 15230.00
1413.830, 15310.00
1415.006, 15490.00
1416.182, 15450.46
1417.358, 15410.00
1418.534, 15500.00
1419.709, 15450.00
1420.884, 15450.00
1422.059, 15450.00
1423.234, 15456.72
1424.409, 15460.00
1425.584, 15510.00
1426.758, 15570.00
1427.932, 15610.00
1429.106, 15620.00
1430.280, 15660.00
1431.453, 15830.00
1432.626, 15620.00
1433.800, 15730.00
1434.973, 15790.00
1436.145, 15650.00
1437.318, 15980.00
1438.490, 15740.00
1439.662, 15880.00
1440.834, 15970.00
1442.006, 15790.00
1443.178, 15960.00
1444.349, 16210.00
1445.521, 15940.00
1446.692, 16050.00
1447.862, 16030.00
1449.033, 15980.00
1450.204, 16100.00
1451.374, 16050.00
1452.544, 16290.00
1453.714, 16200.00
1454.883, 16240.00
1456.053, 16210.00
1457.222, 16222.11
1458.391, 16320.00
1459.560, 16260.00
1460.729, 16420.00
1461.898, 16420.00
1463.066, 16470.00
1464.234, 16360.00
1465.402, 16390.00
1466.570, 16530.00
1467.738, 16390.00
1468.905, 16450.00
1470.072, 16500.00
1471.239, 16560.00
1472.406, 16650.00
1473.573, 16520.00
1474.739, 16690.00
1475.905, 16660.00
1477.071, 16570.00
1478.237, 16690.00
1479.403, 16730.00
1480.568, 16510.00
1481.734, 16660.00
1482.899, 16840.00
1484.064, 16680.00
1485.229, 16710.00
1486.393, 16670.00
1487.557, 16860.00
1488.722, 16840.00
1489.886, 16830.00
1491.049, 16590.00
1492.213, 16970.00
1493.376, 16730.00
1494.540, 16870.00
1495.703, 16770.00
1496.865, 16950.00
1498.028, 16690.00
1499.191, 17050.00
1500.353, 16800.00
1501.515, 17090.00
1502.677, 16970.00
1503.838, 16990.00
1505.000, 17050.00
1506.161, 17030.00
1507.322, 16960.00
1508.483, 17110.00
1509.644, 17120.00
1510.805, 16970.00
1511.965, 17340.00
1513.125, 16950.00
1514.285, 17060.00
1515.445, 17190.00
1516.605, 17020.00
1517.764, 17230.00
1518.923, 17160.00
1520.082, 17130.00
1521.241, 17400.00
1522.400, 17180.00
1523.558, 17250.00
1524.717, 17460.00
##END=



