##NAMES=Natrolite
##RRUFFID=R040022
##IDEAL CHEMISTRY=Na_2_(Si_3_Al_2_)O_10_&#183;2H_2_O
##LOCALITY=Patterson, Passaic County, New Jersey, USA
##OWNER=RRUFF
##SOURCE=University of Arizona Mineral Museum
##DESCRIPTION=White fine fibrous mass
##STATUS=The identification of this mineral has been confirmed by X-ray diffraction and chemical analysis
##URL=rruff.info/R040022
##MEASURED CHEMISTRY=(Na_1.87_Ca_0.08_[box]_0.05_)_Σ=2_(Si_2.97_Al_2.03_)O_10_·1.95H_2_O; H_2_O estimated by difference
58.452, 3.940e+003
59.86000, 4142.000
61.26800, 4396.000
62.67500, 4812.000
64.08300, 5037.000
65.48900, 4993.000
66.89600, 4876.000
68.30200, 4818.000
69.70900, 5096.000
71.11400, 6082.000
72.52000, 7492.000
73.92500, 10570.00
75.33100, 10910.00
76.73500, 10280.00
78.14000, 8461.000
79.54400, 7256.000
80.94900, 6703.000
82.35200, 6645.000
83.75600, 6557.000
85.15900, 6553.000
86.56300, 6609.000
87.96500, 6768.000
89.36800, 6864.000
90.77000, 7054.000
92.17300, 7022.000
93.57400, 7116.000
94.97600, 7011.000
96.37800, 7127.000
97.77900, 7063.000
99.18000, 7170.000
100.5800, 7221.000
101.9810, 7279.000
103.3810, 7414.000
104.7810, 7669.000
106.1800, 8118.000
107.5800, 8725.000
108.9790, 10560.00
110.3780, 12330.00
111.7760, 11580.00
113.1750, 12460.00
114.5730, 11980.00
115.9710, 11080.00
117.3690, 10250.00
118.7660, 9943.000
120.1630, 9868.000
121.5600, 9952.000
122.9570, 9781.000
124.3530, 9187.000
125.7490, 8748.000
127.1450, 8313.000
128.5410, 8130.000
129.9370, 8118.000
131.3320, 8134.000
132.7270, 8112.000
134.1210, 8382.000
135.5160, 8647.000
136.9100, 8790.000
138.3040, 9273.000
139.6980, 9624.000
141.0910, 9897.000
142.4840, 10180.00
143.8770, 10160.00
145.2700, 9904.000
146.6630, 9449.000
148.0550, 9044.000
149.4470, 8595.000
150.8390, 8652.000
152.2300, 8659.000
153.6210, 9088.000
155.0120, 9549.000
156.4030, 10140.00
157.7940, 11040.00
159.1840, 11840.00
160.5740, 12500.00
161.9640, 12800.00
163.3530, 12770.00
164.7430, 12110.00
166.1320, 11300.00
167.5200, 10620.00
168.9090, 9981.000
170.2970, 9589.000
171.6850, 9367.000
173.0730, 9167.000
174.4610, 8937.000
175.8480, 8535.000
177.2350, 8478.000
178.6220, 8212.000
180.0080, 8216.000
181.3950, 8225.000
182.7810, 8216.000
184.1670, 8347.000
185.5520, 8370.000
186.9380, 8334.000
188.3230, 8278.000
189.7080, 8028.000
191.0920, 7800.000
192.4770, 7693.000
193.8610, 7617.000
195.2450, 7582.000
196.6290, 7723.000
198.0120, 7758.224
199.3950, 7929.000
200.7780, 8046.000
202.1610, 8314.000
203.5430, 8560.000
204.9250, 8965.000
206.3070, 9113.000
207.6890, 9147.000
209.0700, 8992.000
210.4520, 8535.000
211.8330, 8278.000
213.2130, 8007.000
214.5940, 7877.000
215.9740, 7679.330
217.3540, 7484.000
218.7340, 7433.000
220.1130, 7343.000
221.4930, 7300.000
222.8720, 7214.000
224.2510, 7127.000
225.6290, 7130.000
227.0070, 7101.000
228.3850, 7071.000
229.7630, 7112.000
231.1410, 7018.000
232.5180, 7090.000
233.8950, 7163.000
235.2720, 7293.000
236.6490, 7437.000
238.0250, 7597.000
239.4010, 7913.000
240.7770, 8094.000
242.1530, 7996.000
243.5280, 7824.000
244.9030, 7552.000
246.2780, 7392.000
247.6530, 7215.000
249.0270, 7168.000
250.4020, 6968.000
251.7750, 7038.000
253.1490, 7020.000
254.5230, 7058.000
255.8960, 7031.000
257.2690, 6987.000
258.6420, 7102.000
260.0140, 7104.000
261.3860, 7175.000
262.7580, 7211.000
264.1300, 7218.000
265.5020, 7346.000
266.8730, 7416.000
268.2440, 7427.000
269.6150, 7577.000
270.9850, 7685.000
272.3560, 7640.000
273.7260, 7536.000
275.0960, 7560.000
276.4650, 7424.000
277.8350, 7437.000
279.2040, 7403.000
280.5730, 7353.000
281.9410, 7252.000
283.3100, 7259.000
284.6780, 7313.000
286.0460, 7286.000
287.4130, 7366.000
288.7810, 7346.000
290.1480, 7345.000
291.5150, 7497.000
292.8820, 7486.000
294.2480, 7514.000
295.6150, 7545.000
296.9810, 7602.032
298.3460, 7645.000
299.7120, 7787.000
301.0770, 7931.000
302.4420, 8105.000
303.8070, 8375.000
305.1720, 8611.000
306.5360, 8880.000
307.9000, 8878.000
309.2640, 8495.000
310.6280, 8184.000
311.9910, 7843.000
313.3540, 7773.000
314.7170, 7722.000
316.0800, 7565.000
317.4420, 7617.000
318.8040, 7568.000
320.1660, 7565.000
321.5280, 7562.000
322.8890, 7609.000
324.2510, 7650.000
325.6120, 7699.884
326.9720, 7833.000
328.3330, 7853.000
329.6930, 7854.000
331.0530, 7976.000
332.4130, 7898.000
333.7730, 7984.000
335.1320, 7900.000
336.4910, 7786.000
337.8500, 7742.000
339.2080, 7796.000
340.5670, 7809.000
341.9250, 7799.000
343.2830, 7828.000
344.6400, 7825.735
345.9980, 7888.000
347.3550, 7872.000
348.7120, 7916.000
350.0690, 8018.000
351.4250, 7959.000
352.7810, 8107.000
354.1370, 8167.000
355.4930, 8287.000
356.8490, 8358.000
358.2040, 8400.000
359.5590, 8441.243
360.9140, 8446.551
362.2680, 8430.000
363.6230, 8420.000
364.9770, 8344.000
366.3310, 8308.000
367.6840, 8141.000
369.0380, 8105.000
370.3910, 8148.000
371.7440, 8077.000
373.0970, 8137.000
374.4490, 8100.792
375.8010, 8070.000
377.1530, 8061.000
378.5050, 8096.000
379.8570, 8087.000
381.2080, 8030.000
382.5590, 8080.000
383.9100, 8076.000
385.2600, 8166.000
386.6110, 8150.000
387.9610, 8160.000
389.3110, 8202.000
390.6600, 8220.000
392.0100, 8196.000
393.3590, 8162.000
394.7080, 8243.000
396.0560, 8300.000
397.4050, 8215.000
398.7530, 8363.000
400.1010, 8268.000
401.4490, 8386.000
402.7960, 8394.000
404.1430, 8488.000
405.4900, 8577.000
406.8370, 8543.000
408.1840, 8668.000
409.5300, 8775.000
410.8760, 8824.000
412.2220, 8937.000
413.5680, 8866.000
414.9130, 8923.000
416.2580, 8884.000
417.6030, 8909.202
418.9480, 9002.000
420.2920, 8969.000
421.6370, 9096.000
422.9810, 9141.000
424.3240, 9224.000
425.6680, 9390.000
427.0110, 9470.000
428.3540, 9661.000
429.6970, 9746.000
431.0400, 10090.00
432.3820, 10290.00
433.7240, 10690.00
435.0660, 11050.00
436.4080, 11760.00
437.7490, 12630.00
439.0900, 13590.00
440.4310, 14730.00
441.7720, 15850.00
443.1130, 16160.00
444.4530, 15440.00
445.7930, 14510.00
447.1330, 13450.00
448.4720, 12480.00
449.8110, 11750.00
451.1510, 11110.00
452.4890, 10590.00
453.8280, 10280.00
455.1660, 10020.00
456.5050, 9736.000
457.8430, 9629.000
459.1800, 9498.000
460.5180, 9475.000
461.8550, 9387.000
463.1920, 9339.000
464.5290, 9383.000
465.8650, 9344.000
467.2020, 9457.000
468.5380, 9376.000
469.8730, 9472.000
471.2090, 9444.000
472.5440, 9489.000
473.8800, 9591.000
475.2140, 9563.000
476.5490, 9695.000
477.8840, 9756.000
479.2180, 9911.000
480.5520, 9930.000
481.8860, 10020.00
483.2190, 10200.00
484.5520, 10210.00
485.8850, 10370.00
487.2180, 10360.00
488.5510, 10320.00
489.8830, 10470.00
491.2150, 10430.00
492.5470, 10400.00
493.8790, 10380.00
495.2100, 10350.00
496.5420, 10320.00
497.8730, 10270.00
499.2030, 10280.00
500.5340, 10150.00
501.8640, 10270.00
503.1940, 10160.00
504.5240, 10180.00
505.8540, 10280.00
507.1830, 10280.00
508.5120, 10330.00
509.8410, 10420.00
511.1700, 10430.00
512.4980, 10660.00
513.8260, 10780.00
515.1540, 10750.00
516.4820, 10950.00
517.8100, 11090.00
519.1370, 11210.00
520.4640, 11300.00
521.7910, 11610.00
523.1180, 11850.00
524.4440, 12230.00
525.7700, 12890.00
527.0960, 13490.00
528.4220, 14660.00
529.7470, 15970.00
531.0720, 17450.00
532.3970, 18560.00
533.7220, 19180.00
535.0470, 18910.00
536.3710, 17850.00
537.6950, 16310.00
539.0190, 14980.00
540.3430, 13830.00
541.6660, 12990.00
542.9890, 12330.00
544.3120, 11780.00
545.6350, 11360.00
546.9570, 11140.00
548.2800, 11040.00
549.6020, 10870.00
550.9230, 10670.00
552.2450, 10710.00
553.5660, 10490.00
554.8870, 10570.00
556.2080, 10380.00
557.5290, 10450.00
558.8490, 10430.00
560.1700, 10310.00
561.4900, 10430.00
562.8090, 10400.00
564.1290, 10390.00
565.4480, 10310.00
566.7670, 10380.00
568.0860, 10410.00
569.4050, 10340.00
570.7230, 10370.00
572.0410, 10430.00
573.3590, 10270.00
574.6770, 10410.00
575.9940, 10450.00
577.3120, 10400.00
578.6290, 10600.00
579.9450, 10380.00
581.2620, 10460.00
582.5780, 10400.00
583.8940, 10630.00
585.2100, 10540.00
586.5260, 10550.00
587.8410, 10610.00
589.1570, 10576.09
590.4710, 10580.00
591.7860, 10600.00
593.1010, 10610.00
594.4150, 10620.00
595.7290, 10680.00
597.0430, 10698.42
598.3570, 10760.00
599.6700, 10760.00
600.9830, 10680.00
602.2960, 10670.00
603.6090, 10670.00
604.9210, 10660.00
606.2340, 10659.08
607.5460, 10658.11
608.8570, 10640.00
610.1690, 10690.00
611.4800, 10650.00
612.7910, 10730.00
614.1020, 10710.00
615.4130, 10730.00
616.7230, 10810.00
618.0340, 10770.00
619.3440, 10770.00
620.6530, 10770.00
621.9630, 10750.00
623.2720, 10840.00
624.5810, 10810.00
625.8900, 10870.00
627.1990, 10890.00
628.5070, 10790.00
629.8160, 10900.00
631.1240, 10870.00
632.4310, 10920.00
633.7390, 10920.00
635.0460, 10943.10
636.3530, 10969.99
637.6600, 10980.00
638.9670, 11030.00
640.2730, 11010.00
641.5790, 11070.00
642.8850, 11090.00
644.1910, 11030.00
645.4960, 11040.00
646.8020, 11040.00
648.1070, 11010.00
649.4120, 11024.39
650.7160, 11050.00
652.0210, 11050.00
653.3250, 11170.00
654.6290, 11240.00
655.9320, 11230.00
657.2360, 11200.00
658.5390, 11310.00
659.8420, 11280.00
661.1450, 11260.00
662.4480, 11410.00
663.7500, 11270.00
665.0520, 11290.00
666.3540, 11340.00
667.6560, 11380.00
668.9570, 11399.91
670.2580, 11430.00
671.5590, 11430.00
672.8600, 11410.00
674.1610, 11390.00
675.4610, 11620.00
676.7610, 11430.00
678.0610, 11590.00
679.3610, 11510.00
680.6600, 11570.00
681.9600, 11690.00
683.2590, 11610.00
684.5570, 11680.00
685.8560, 11700.00
687.1540, 11760.00
688.4530, 11730.00
689.7500, 11820.00
691.0480, 11980.00
692.3460, 11950.00
693.6430, 11990.00
694.9400, 12130.00
696.2370, 12190.00
697.5330, 12350.00
698.8300, 12407.02
700.1260, 12370.00
701.4220, 12520.00
702.7170, 12450.00
704.0130, 12450.00
705.3080, 12560.00
706.6030, 12480.00
707.8980, 12510.00
709.1920, 12460.00
710.4870, 12460.00
711.7810, 12480.00
713.0750, 12430.00
714.3680, 12580.00
715.6620, 12510.00
716.9550, 12450.00
718.2480, 12540.00
719.5410, 12490.00
720.8340, 12590.00
722.1260, 12510.00
723.4180, 12520.00
724.7100, 12720.00
726.0020, 12670.00
727.2930, 12830.00
728.5840, 12730.00
729.8750, 12670.00
731.1660, 12680.00
732.4570, 12582.20
733.7470, 12500.00
735.0370, 12480.00
736.3270, 12400.00
737.6170, 12400.00
738.9070, 12390.00
740.1960, 12369.89
741.4850, 12380.00
742.7740, 12360.00
744.0620, 12330.00
745.3510, 12300.00
746.6390, 12440.00
747.9270, 12420.00
749.2150, 12360.00
750.5020, 12490.00
751.7890, 12470.00
753.0760, 12550.00
754.3630, 12490.00
755.6500, 12390.00
756.9360, 12560.00
758.2230, 12410.00
759.5090, 12560.00
760.7940, 12550.00
762.0800, 12600.00
763.3650, 12540.00
764.6500, 12640.00
765.9350, 12690.00
767.2200, 12730.00
768.5040, 12460.00
769.7880, 12710.00
771.0720, 12670.00
772.3560, 12610.00
773.6400, 12820.00
774.9230, 12520.00
776.2060, 12790.00
777.4890, 12630.00
778.7720, 12670.00
780.0540, 12760.00
781.3370, 12790.00
782.6190, 12840.00
783.9000, 12910.00
785.1820, 12840.00
786.4630, 12870.00
787.7450, 12850.00
789.0250, 12900.00
790.3060, 12880.00
791.5870, 12930.00
792.8670, 12900.00
794.1470, 12940.00
795.4270, 13000.00
796.7070, 12980.00
797.9860, 12990.00
799.2650, 13010.00
800.5440, 13020.00
801.8230, 13150.00
803.1010, 13020.00
804.3800, 13120.00
805.6580, 13290.00
806.9360, 13170.00
808.2130, 13120.00
809.4910, 13220.00
810.7680, 13130.00
812.0450, 13290.00
813.3220, 13210.00
814.5990, 13260.00
815.8750, 13390.00
817.1510, 13220.00
818.4270, 13330.00
819.7030, 13280.00
820.9780, 13360.00
822.2530, 13460.00
823.5290, 13380.00
824.8030, 13430.00
826.0780, 13330.00
827.3520, 13440.00
828.6270, 13420.04
829.9010, 13470.00
831.1740, 13460.00
832.4480, 13490.00
833.7210, 13520.00
834.9940, 13590.00
836.2670, 13500.00
837.5400, 13700.00
838.8120, 13640.00
840.0850, 13720.00
841.3570, 13660.00
842.6290, 13570.00
843.9000, 13710.00
845.1720, 13770.00
846.4430, 13680.00
847.7140, 13950.00
848.9840, 13700.00
850.2550, 13820.00
851.5250, 13810.00
852.7950, 13820.00
854.0650, 14010.00
855.3350, 14010.00
856.6040, 14020.00
857.8740, 14010.00
859.1430, 13970.00
860.4110, 14010.00
861.6800, 13850.00
862.9480, 13950.00
864.2170, 14140.00
865.4840, 13790.00
866.7520, 14220.00
868.0200, 14150.00
869.2870, 14160.00
870.5540, 14100.00
871.8210, 14070.00
873.0880, 14062.86
874.3540, 14210.00
875.6200, 14050.00
876.8860, 14270.00
878.1520, 14310.00
879.4180, 14330.00
880.6830, 14340.00
881.9480, 14300.00
883.2130, 14420.00
884.4780, 14300.00
885.7420, 14280.00
887.0070, 14400.00
888.2710, 14380.00
889.5350, 14480.00
890.7980, 14340.00
892.0620, 14570.00
893.3250, 14410.00
894.5880, 14530.00
895.8510, 14490.00
897.1130, 14520.00
898.3760, 14440.00
899.6380, 14640.00
900.9000, 14670.00
902.1610, 14850.00
903.4230, 14800.00
904.6840, 14550.00
905.9450, 14870.00
907.2060, 14680.00
908.4670, 14620.00
909.7270, 14940.00
910.9870, 14660.00
912.2470, 15050.00
913.5070, 14800.00
914.7670, 14760.00
916.0260, 14910.00
917.2850, 14800.00
918.5440, 15130.00
919.8030, 14830.00
921.0620, 14960.00
922.3200, 15130.00
923.5780, 14880.00
924.8360, 15270.00
926.0940, 15050.00
927.3510, 15110.00
928.6080, 15240.00
929.8650, 15240.00
931.1220, 15180.00
932.3790, 15300.00
933.6350, 15320.00
934.8910, 15390.00
936.1470, 15390.00
937.4030, 15480.00
938.6590, 15580.00
939.9140, 15330.00
941.1690, 15600.00
942.4240, 15420.00
943.6790, 15440.00
944.9330, 15720.00
946.1880, 15430.00
947.4420, 15550.00
948.6960, 15680.00
949.9490, 15550.00
951.2030, 15690.00
952.4560, 15690.00
953.7090, 15650.00
954.9620, 15990.00
956.2140, 15820.00
957.4670, 15970.00
958.7190, 16150.00
959.9710, 16260.00
961.2220, 16410.00
962.4740, 16520.00
963.7250, 16850.00
964.9760, 16810.00
966.2270, 16810.00
967.4780, 16780.00
968.7290, 16650.00
969.9790, 16720.00
971.2290, 16750.00
972.4790, 16560.00
973.7280, 16510.00
974.9780, 16570.00
976.2270, 16400.00
977.4760, 16750.00
978.7250, 16490.00
979.9730, 16530.00
981.2220, 16570.00
982.4700, 16330.00
983.7180, 16650.00
984.9660, 16280.00
986.2130, 16300.00
987.4600, 16570.00
988.7080, 16640.00
989.9540, 16720.00
991.2010, 16600.00
992.4480, 16580.00
993.6940, 16760.00
994.9400, 16700.00
996.1860, 16920.00
997.4310, 16940.00
998.6770, 16660.00
999.9220, 16940.00
1001.167, 16820.00
1002.412, 16840.00
1003.657, 16920.00
1004.901, 16810.00
1006.145, 17100.00
1007.389, 16980.00
1008.633, 16890.00
1009.876, 16990.00
1011.120, 16900.00
1012.363, 17160.00
1013.606, 16970.00
1014.848, 17010.00
1016.091, 17380.00
1017.333, 17300.00
1018.575, 17320.00
1019.817, 17390.00
1021.059, 17540.00
1022.300, 17600.00
1023.542, 17640.00
1024.783, 17620.00
1026.024, 17790.00
1027.264, 17670.00
1028.505, 17890.00
1029.745, 17990.00
1030.985, 17800.00
1032.225, 18240.00
1033.464, 18200.00
1034.704, 18550.00
1035.943, 18980.00
1037.182, 19300.00
1038.420, 19620.00
1039.659, 19550.00
1040.897, 19220.00
1042.135, 19130.00
1043.373, 18680.00
1044.611, 18320.00
1045.849, 18540.00
1047.086, 18150.00
1048.323, 18230.00
1049.560, 17970.00
1050.797, 17850.00
1052.033, 17990.00
1053.269, 17850.00
1054.505, 17790.00
1055.741, 17950.00
1056.977, 17810.00
1058.212, 17900.00
1059.447, 18000.00
1060.682, 17840.00
1061.917, 17990.00
1063.152, 17880.00
1064.386, 17930.00
1065.620, 18120.00
1066.854, 18000.00
1068.088, 18290.00
1069.322, 18070.00
1070.555, 18270.00
1071.788, 18330.00
1073.021, 18160.00
1074.254, 18300.00
1075.487, 18520.00
1076.719, 18300.00
1077.951, 18440.00
1079.183, 18480.00
1080.415, 18460.00
1081.646, 18710.00
1082.877, 18680.00
1084.109, 18720.00
1085.339, 18800.00
1086.570, 18620.00
1087.801, 18800.00
1089.031, 18740.00
1090.261, 18950.00
1091.491, 18790.00
1092.720, 18550.00
1093.950, 18770.00
1095.179, 18610.00
1096.408, 18410.00
1097.637, 18600.00
1098.866, 18250.00
1100.094, 18430.00
1101.322, 18490.00
1102.550, 18360.00
1103.778, 18390.00
1105.006, 18350.00
1106.233, 18410.00
1107.460, 18490.00
1108.687, 18300.00
1109.914, 18480.00
1111.141, 18380.00
1112.367, 18410.00
1113.593, 18430.00
1114.819, 18390.00
1116.045, 18350.00
1117.270, 18500.00
1118.496, 18370.00
1119.721, 18570.00
1120.946, 18510.00
1122.170, 18580.00
1123.395, 18480.00
1124.619, 18390.00
1125.843, 18660.00
1127.067, 18530.00
1128.291, 18470.00
1129.514, 18530.00
1130.738, 18400.00
1131.961, 18560.00
1133.184, 18500.00
1134.406, 18590.00
1135.629, 18680.00
1136.851, 18710.00
1138.073, 18590.00
1139.295, 18880.00
1140.517, 18580.00
1141.738, 18640.00
1142.960, 18790.00
1144.181, 18630.00
1145.401, 18860.00
1146.622, 18700.00
1147.842, 18690.00
1149.063, 19130.00
1150.283, 18940.00
1151.503, 18780.00
1152.722, 18990.00
1153.942, 18760.00
1155.161, 18990.00
1156.380, 18880.00
1157.599, 18840.00
1158.817, 19010.00
1160.036, 19070.00
1161.254, 18990.00
1162.472, 19220.00
1163.690, 19030.00
1164.907, 19270.00
1166.125, 19110.00
1167.342, 19190.00
1168.559, 19220.00
1169.776, 19150.00
1170.992, 19360.00
1172.209, 19330.00
1173.425, 19260.00
1174.641, 19460.00
1175.857, 19360.00
1177.072, 19270.00
1178.287, 19570.00
1179.503, 19370.00
1180.718, 19300.00
1181.932, 19680.00
1183.147, 19490.00
1184.361, 19320.00
1185.575, 19530.00
1186.789, 19700.00
1188.003, 19860.00
1189.217, 19680.00
1190.430, 19570.00
1191.643, 19760.00
1192.856, 19700.00
1194.069, 19770.00
1195.281, 19660.00
1196.494, 19680.00
1197.706, 20080.00
1198.918, 19970.00
1200.130, 19710.00
1201.341, 20010.00
1202.552, 19690.00
1203.764, 19920.00
1204.974, 20060.00
1206.185, 20150.00
1207.396, 20140.00
1208.606, 20080.00
1209.816, 19920.00
1211.026, 19983.51
1212.236, 20160.00
1213.445, 20030.00
1214.655, 20130.00
1215.864, 20150.00
1217.073, 20460.00
1218.281, 20340.00
1219.490, 20060.00
1220.698, 20410.00
1221.906, 20320.00
1223.114, 20260.00
1224.322, 20380.00
1225.529, 20450.00
1226.737, 20400.00
1227.944, 20490.00
1229.151, 20300.00
1230.358, 20550.00
1231.564, 20450.00
1232.770, 20530.00
1233.976, 20580.00
1235.182, 20440.00
1236.388, 20610.00
1237.594, 20640.00
1238.799, 20550.00
1240.004, 20730.00
1241.209, 20740.00
1242.414, 20540.00
1243.618, 20950.00
1244.822, 20770.00
1246.027, 20830.00
1247.230, 20870.00
1248.434, 20780.00
1249.638, 20820.00
1250.841, 20900.00
1252.044, 20870.00
1253.247, 20970.00
1254.450, 20880.00
1255.652, 21000.00
1256.855, 20960.00
1258.057, 21140.00
1259.259, 21170.00
1260.460, 20940.00
1261.662, 20980.00
1262.863, 21230.00
1264.064, 21020.00
1265.265, 21190.00
1266.466, 21140.00
1267.666, 21210.00
1268.867, 21240.00
1270.067, 21190.00
1271.267, 21160.00
1272.467, 21480.00
1273.666, 21280.00
1274.865, 21450.00
1276.065, 21480.00
1277.264, 21140.00
1278.462, 21370.00
1279.661, 21460.00
1280.859, 21380.00
1282.057, 21450.00
1283.255, 21350.00
1284.453, 21470.00
1285.651, 21470.00
1286.848, 21640.00
1288.045, 21690.00
1289.242, 21600.00
1290.439, 21500.00
1291.635, 21620.00
1292.832, 21720.00
1294.028, 21660.00
1295.224, 21630.00
1296.420, 21590.00
1297.615, 21599.32
1298.811, 21670.00
1300.006, 21650.00
1301.201, 21840.00
1302.395, 21900.00
1303.590, 21880.00
1304.784, 21971.24
1305.979, 21982.16
1307.173, 22000.00
1308.366, 22060.00
1309.560, 22043.90
1310.753, 22120.00
1311.947, 21970.00
1313.140, 21910.00
1314.332, 21900.00
1315.525, 22120.00
1316.717, 22080.00
1317.910, 22240.00
1319.102, 22350.00
1320.293, 22170.00
1321.485, 22250.00
1322.677, 22330.00
1323.868, 22320.00
1325.059, 22230.00
1326.250, 22380.00
1327.440, 22620.00
1328.631, 22310.00
1329.821, 22520.00
1331.011, 22570.00
1332.201, 22560.00
1333.391, 22800.00
1334.580, 22620.00
1335.769, 22760.00
1336.958, 22740.00
1338.147, 22800.00
1339.336, 22690.00
1340.524, 23030.00
1341.713, 22940.00
1342.901, 22800.00
1344.089, 23080.00
1345.276, 22880.00
1346.464, 23190.00
1347.651, 22960.00
1348.838, 23040.00
1350.025, 23330.00
1351.212, 23340.00
1352.399, 23080.00
1353.585, 23320.00
1354.771, 23240.00
1355.957, 23280.00
1357.143, 23690.00
1358.328, 23410.00
1359.514, 23530.00
1360.699, 23520.00
1361.884, 23530.00
1363.069, 23660.00
1364.253, 23400.00
1365.437, 23590.00
1366.622, 23850.00
1367.806, 23510.00
1368.989, 23820.00
1370.173, 23790.00
1371.356, 23820.00
1372.540, 24180.00
1373.723, 23780.00
1374.906, 23940.00
1376.088, 24050.00
1377.271, 24040.00
1378.453, 23950.00
1379.635, 24120.00
1380.817, 24190.00
1381.998, 24470.00
1383.180, 24140.00
1384.361, 24000.00
1385.542, 24320.00
1386.723, 24200.00
1387.904, 24270.00
1389.084, 24510.00
1390.265, 24590.00
1391.445, 24390.00
1392.625, 24380.00
1393.804, 24360.00
1394.984, 24500.00
1396.163, 24550.00
1397.342, 24530.00
1398.521, 24700.00
1399.700, 24570.00
1400.879, 24630.00
1402.057, 24830.00
1403.235, 24520.00
1404.413, 24800.00
1405.591, 25080.00
1406.768, 24730.00
1407.946, 24990.00
1409.123, 24980.00
1410.300, 25010.00
1411.477, 24830.00
1412.653, 24860.00
1413.830, 25100.00
1415.006, 25260.00
1416.182, 25150.00
1417.358, 25150.00
1418.534, 25230.00
1419.709, 25360.00
1420.884, 25410.00
1422.059, 25462.03
1423.234, 25519.43
1424.409, 25510.00
1425.584, 25520.00
1426.758, 25520.00
1427.932, 25380.00
1429.106, 25450.00
1430.280, 25580.00
1431.453, 25760.00
1432.626, 25580.00
1433.800, 25810.00
1434.973, 25760.00
1436.145, 25710.00
1437.318, 26180.00
1438.490, 25710.00
1439.662, 26070.00
1440.834, 26120.00
1442.006, 25910.00
1443.178, 26060.00
1444.349, 26320.00
1445.521, 26080.00
1446.692, 26140.00
1447.862, 26170.00
1449.033, 26165.14
1450.204, 26280.00
1451.374, 26340.00
1452.544, 26450.00
1453.714, 26519.61
1454.883, 26590.00
1456.053, 26641.28
1457.222, 26666.74
1458.391, 26680.00
1459.560, 26680.00
1460.729, 26790.00
1461.898, 26830.00
1463.066, 26800.00
1464.234, 26750.00
1465.402, 26800.73
1466.570, 26817.14
1467.738, 26880.00
1468.905, 26910.00
1470.072, 26990.00
1471.239, 27000.00
1472.406, 27100.00
1473.573, 27121.94
1474.739, 27310.00
1475.905, 27180.00
1477.071, 27210.00
1478.237, 27220.00
1479.403, 27060.00
1480.568, 27110.00
1481.734, 27200.00
1482.899, 27520.00
1484.064, 27390.00
1485.229, 27400.00
1486.393, 27260.00
1487.557, 27510.00
1488.722, 27450.00
1489.886, 27530.00
1491.049, 27581.30
1492.213, 27620.00
1493.376, 27620.00
1494.540, 27600.00
1495.703, 27640.00
1496.865, 27760.00
1498.028, 27480.00
1499.191, 28060.00
1500.353, 27570.00
1501.515, 27970.00
1502.677, 27940.00
1503.838, 27830.00
1505.000, 27830.00
1506.161, 27800.00
1507.322, 27660.00
1508.483, 28010.00
1509.644, 27780.00
1510.805, 27690.00
1511.965, 28330.00
1513.125, 27880.00
1514.285, 27990.00
1515.445, 28200.00
1516.605, 27920.00
1517.764, 28080.00
1518.923, 28130.00
1520.082, 27980.00
1521.241, 28470.00
1522.400, 28110.00
1523.558, 28330.00
1524.717, 28520.00
##END=



