##NAMES=Opal
##RRUFFID=R060653
##IDEAL CHEMISTRY=SiO_2_&#183;<i>n</i>H_2_O
##LOCALITY=Brazil
##OWNER=RRUFF
##SOURCE=Gemological Institute of America
##DESCRIPTION=Colorless to blue tinted glassy amorphous fragment, variety opal-A
##STATUS=The identification of this mineral has been confirmed by X-ray diffraction and chemical analysis
##URL=rruff.info/R060653
##MEASURED CHEMISTRY=(Si_0.99_Al_0.01_)_Σ=2_(O_1.99_(OH)_0.01_)_Σ=2_· 0.17H_2_O
149.484, 13752.360
149.967, 13763.060
150.449, 13806.230
150.931, 13880.680
151.413, 13943.210
151.895, 13979.200
152.377, 14012.100
152.859, 14057.960
153.342, 14171.590
153.824, 14246.190
154.306, 14248.690
154.788, 14168.360
155.270, 14102.370
155.752, 14064.560
156.234, 14047.460
156.716, 14041.970
157.198, 14055.360
157.680, 14073.140
158.163, 14092.320
158.645, 14115.520
159.127, 14130.000
159.609, 14118.980
160.091, 14096.740
160.573, 14089.820
161.055, 14109.160
161.538, 14143.320
162.020, 14189.910
162.502, 14266.850
162.984, 14322.100
163.466, 14314.090
163.948, 14260.910
164.430, 14223.110
164.912, 14242.420
165.394, 14282.490
165.876, 14313.290
166.359, 14318.490
166.841, 14320.680
167.323, 14336.540
167.805, 14364.290
168.287, 14386.710
168.769, 14401.890
169.251, 14404.220
169.733, 14386.910
170.216, 14318.120
170.698, 14248.250
171.180, 14216.490
171.662, 14224.090
172.144, 14256.990
172.626, 14341.140
173.108, 14441.920
173.590, 14496.790
174.072, 14429.850
174.555, 14322.750
175.037, 14271.690
175.519, 14288.940
176.001, 14327.240
176.483, 14347.290
176.965, 14352.130
177.447, 14350.740
177.929, 14345.090
178.412, 14336.910
178.894, 14327.730
179.376, 14316.030
179.858, 14307.720
180.340, 14311.380
180.822, 14325.930
181.304, 14344.690
181.786, 14364.220
182.268, 14384.600
182.751, 14407.460
183.233, 14436.580
183.715, 14463.290
184.197, 14463.930
184.679, 14439.490
185.161, 14422.760
185.643, 14448.920
186.125, 14507.780
186.607, 14560.460
187.090, 14603.150
187.572, 14629.340
188.054, 14610.560
188.536, 14542.840
189.018, 14476.590
189.500, 14468.300
189.982, 14512.100
190.464, 14559.560
190.947, 14601.170
191.429, 14634.810
191.911, 14647.910
192.393, 14638.840
192.875, 14617.120
193.357, 14582.620
193.839, 14536.010
194.321, 14513.870
194.803, 14559.040
195.286, 14659.830
195.768, 14663.460
196.250, 14545.380
196.732, 14390.250
197.214, 14325.910
197.696, 14360.490
198.178, 14417.190
198.661, 14466.850
199.143, 14509.580
199.625, 14552.110
200.107, 14600.890
200.589, 14642.200
201.071, 14638.060
201.553, 14577.260
202.035, 14524.510
202.517, 14521.880
202.999, 14575.800
203.482, 14610.430
203.964, 14615.700
204.446, 14601.530
204.928, 14591.660
205.410, 14582.730
205.892, 14586.950
206.374, 14620.630
206.857, 14693.010
207.339, 14738.270
207.821, 14741.740
208.303, 14713.830
208.785, 14701.160
209.267, 14710.200
209.749, 14720.330
210.231, 14713.400
210.713, 14683.060
211.195, 14665.050
211.678, 14672.160
212.160, 14699.440
212.642, 14699.490
213.124, 14662.990
213.606, 14617.260
214.088, 14586.140
214.570, 14572.190
215.052, 14565.320
215.535, 14564.320
216.017, 14569.060
216.499, 14577.900
216.981, 14594.120
217.463, 14609.050
217.945, 14608.000
218.427, 14574.050
218.909, 14566.340
219.391, 14609.160
219.874, 14706.970
220.356, 14766.220
220.838, 14774.010
221.320, 14755.590
221.802, 14741.100
222.284, 14733.930
222.766, 14723.760
223.248, 14705.100
223.731, 14674.490
224.213, 14661.500
224.695, 14673.160
225.177, 14697.500
225.659, 14718.480
226.141, 14738.020
226.623, 14751.050
227.105, 14754.690
227.587, 14746.390
228.070, 14739.890
228.552, 14735.010
229.034, 14731.640
229.516, 14729.240
229.998, 14725.010
230.480, 14725.560
230.962, 14733.140
231.444, 14748.320
231.926, 14767.860
232.409, 14793.140
232.891, 14821.790
233.373, 14851.630
233.855, 14892.870
234.337, 14919.200
234.819, 14917.540
235.301, 14871.430
235.783, 14838.780
236.266, 14822.060
236.748, 14818.300
237.230, 14821.530
237.712, 14838.090
238.194, 14852.890
238.676, 14854.050
239.158, 14814.550
239.640, 14827.620
240.122, 14928.920
240.605, 14911.383
241.087, 14960.428
241.569, 14993.309
242.051, 15010.896
242.533, 14967.388
243.015, 15002.772
243.497, 15006.540
243.980, 15009.015
244.462, 15055.503
244.944, 15020.881
245.426, 15066.672
245.908, 15080.363
246.390, 15108.748
246.872, 15105.318
247.354, 15111.714
247.836, 15149.933
248.318, 15170.531
248.801, 15163.438
249.283, 15192.758
249.765, 15157.024
250.247, 15178.373
250.729, 15224.350
251.211, 15218.857
251.693, 15248.755
252.176, 15265.178
252.658, 15220.342
253.140, 15282.034
253.622, 15297.657
254.104, 15265.977
254.586, 15324.020
255.068, 15298.862
255.550, 15303.400
256.032, 15330.289
256.514, 15333.879
256.997, 15374.201
257.479, 15379.136
257.961, 15380.912
258.443, 15396.483
258.925, 15372.955
259.407, 15421.964
259.889, 15421.425
260.371, 15445.516
260.854, 15475.188
261.336, 15462.114
261.818, 15474.790
262.300, 15478.760
262.782, 15487.040
263.264, 15494.440
263.746, 15501.510
264.228, 15511.160
264.711, 15523.170
265.193, 15537.820
265.675, 15557.290
266.157, 15584.630
266.639, 15605.000
267.121, 15615.100
267.603, 15616.860
268.085, 15619.690
268.567, 15626.160
269.050, 15628.740
269.532, 15617.880
270.014, 15587.840
270.496, 15573.820
270.978, 15586.060
271.460, 15617.170
271.942, 15636.840
272.424, 15643.580
272.906, 15643.450
273.389, 15639.340
273.871, 15630.420
274.353, 15622.360
274.835, 15611.780
275.317, 15604.140
275.799, 15625.280
276.281, 15682.570
276.763, 15742.510
277.246, 15779.840
277.728, 15792.780
278.210, 15797.790
278.692, 15787.080
279.174, 15774.840
279.656, 15774.930
280.138, 15765.100
280.620, 15755.855
281.103, 15803.262
281.585, 15836.915
282.067, 15857.556
282.549, 15826.209
283.031, 15861.994
283.513, 15870.878
283.995, 15878.657
284.477, 15923.890
284.959, 15900.104
285.441, 15944.743
285.924, 15962.069
286.406, 15991.897
286.888, 15994.655
287.370, 16005.060
287.852, 16042.140
288.334, 16074.190
288.816, 16067.770
289.298, 16032.650
289.781, 16032.390
290.263, 16087.070
290.745, 16163.240
291.227, 16196.480
291.709, 16188.200
292.191, 16168.070
292.673, 16152.160
293.155, 16139.690
293.638, 16126.920
294.120, 16111.390
294.602, 16099.610
295.084, 16104.870
295.566, 16125.640
296.048, 16148.350
296.530, 16166.690
297.012, 16181.340
297.494, 16193.190
297.977, 16202.760
298.459, 16210.560
298.941, 16214.770
299.423, 16217.180
299.905, 16224.350
300.387, 16240.610
300.869, 16264.150
301.351, 16287.380
301.833, 16280.917
302.316, 16336.719
302.798, 16377.406
303.280, 16403.791
303.762, 16373.044
304.244, 16416.074
304.726, 16429.535
305.208, 16441.785
305.690, 16495.197
306.172, 16472.756
306.655, 16525.521
307.137, 16548.264
307.619, 16584.744
308.101, 16585.330
308.583, 16583.539
309.065, 16592.670
309.547, 16615.061
310.030, 16634.820
310.512, 16637.891
310.994, 16632.100
311.476, 16630.061
311.958, 16637.840
312.440, 16651.141
312.922, 16672.740
313.404, 16704.369
313.886, 16723.080
314.369, 16707.170
314.851, 16673.801
315.333, 16645.520
315.815, 16624.490
316.297, 16615.090
316.779, 16617.881
317.261, 16632.750
317.743, 16664.830
318.225, 16740.920
318.708, 16825.789
319.190, 16883.061
319.672, 16891.551
320.154, 16883.529
320.636, 16861.439
321.118, 16826.311
321.600, 16801.400
322.082, 16792.330
322.565, 16795.461
323.047, 16807.920
323.529, 16843.000
324.011, 16871.900
324.493, 16884.600
324.975, 16882.721
325.457, 16887.400
325.939, 16902.760
326.422, 16923.641
326.904, 16947.029
327.386, 16983.369
327.868, 17008.961
328.350, 17013.250
328.832, 17002.340
329.314, 17008.760
329.796, 17052.529
330.278, 17095.711
330.760, 17117.680
331.243, 17088.471
331.725, 17091.039
332.207, 17148.910
332.689, 17237.990
333.171, 17283.711
333.653, 17264.670
334.135, 17234.980
334.617, 17215.301
335.100, 17201.930
335.582, 17212.859
336.064, 17262.240
336.546, 17326.119
337.028, 17349.859
337.510, 17312.961
337.992, 17290.840
338.474, 17322.859
338.957, 17418.529
339.439, 17475.570
339.921, 17479.990
340.403, 17468.070
340.885, 17436.061
341.367, 17500.215
341.849, 17541.025
342.331, 17559.748
342.813, 17490.223
343.296, 17534.654
343.778, 17533.414
344.260, 17530.303
344.742, 17590.770
345.224, 17534.080
345.706, 17593.537
346.188, 17606.635
346.670, 17640.949
347.152, 17629.312
347.635, 17631.871
348.117, 17680.391
348.599, 17703.461
349.081, 17663.180
349.563, 17690.510
350.045, 17727.381
350.527, 17771.881
351.009, 17829.449
351.491, 17896.430
351.974, 17945.561
352.456, 17945.900
352.938, 17917.430
353.420, 17892.920
353.902, 17877.211
354.384, 17870.359
354.866, 17876.631
355.349, 17893.260
355.831, 17911.080
356.313, 17926.420
356.795, 17940.539
357.277, 17956.480
357.759, 17977.811
358.241, 17958.461
358.723, 17999.723
359.205, 18026.273
359.688, 18038.900
360.170, 17995.906
360.652, 18024.736
361.134, 18024.781
361.616, 18023.646
362.098, 18062.586
362.580, 18027.682
363.062, 18065.984
363.544, 18075.064
364.027, 18097.520
364.509, 18091.012
364.991, 18093.449
365.473, 18124.859
365.955, 18140.229
366.437, 18130.387
366.919, 18153.691
367.401, 18130.980
367.884, 18162.461
368.366, 18190.539
368.848, 18210.820
369.330, 18224.141
369.812, 18233.980
370.294, 18213.291
370.776, 18264.455
371.258, 18298.180
371.741, 18315.398
372.223, 18266.678
372.705, 18303.104
373.187, 18305.406
373.669, 18306.311
374.151, 18354.723
374.633, 18315.594
375.115, 18358.590
375.597, 18404.930
376.079, 18453.270
376.562, 18510.869
377.044, 18560.240
377.526, 18565.920
378.008, 18520.420
378.490, 18479.010
378.972, 18460.211
379.454, 18463.029
379.936, 18481.949
380.419, 18521.480
380.901, 18557.490
381.383, 18557.631
381.865, 18526.641
382.347, 18500.570
382.829, 18490.590
383.311, 18491.811
383.793, 18492.039
384.276, 18491.770
384.758, 18498.211
385.240, 18520.010
385.722, 18552.061
386.204, 18584.400
386.686, 18614.869
387.168, 18643.131
387.650, 18672.279
388.132, 18699.609
388.615, 18717.500
389.097, 18718.439
389.579, 18708.471
390.061, 18688.230
390.543, 18651.801
391.025, 18629.580
391.507, 18649.840
391.989, 18695.881
392.471, 18740.439
392.954, 18786.689
393.436, 18818.930
393.918, 18826.090
394.400, 18806.930
394.882, 18783.600
395.364, 18755.449
395.846, 18731.260
396.328, 18718.680
396.810, 18735.090
397.293, 18746.900
397.775, 18738.029
398.257, 18712.410
398.739, 18709.760
399.221, 18753.830
399.703, 18805.080
400.185, 18845.090
400.668, 18879.221
401.150, 18891.789
401.632, 18872.311
402.114, 18833.131
402.596, 18802.529
403.078, 18774.850
403.560, 18766.570
404.042, 18791.510
404.524, 18858.250
405.007, 18900.090
405.489, 18913.160
405.971, 18907.869
406.453, 18892.170
406.935, 18862.869
407.417, 18795.129
407.899, 18892.010
408.381, 18948.928
408.863, 18968.035
409.346, 18836.078
409.828, 18899.188
410.310, 18884.125
410.792, 18865.855
411.274, 18956.422
411.756, 18846.436
412.238, 18935.275
412.720, 18944.748
413.203, 18990.545
413.685, 18957.686
414.167, 18949.119
414.649, 18952.660
415.131, 18999.301
415.613, 19053.480
416.095, 19097.801
416.577, 19117.750
417.060, 19117.990
417.542, 19107.539
418.024, 19074.619
418.506, 19043.680
418.988, 19035.160
419.470, 19049.160
419.952, 19058.801
420.434, 19037.350
420.916, 19001.932
421.398, 19055.066
421.881, 19086.707
422.363, 19098.006
422.845, 19028.043
423.327, 19063.014
423.809, 19055.932
424.291, 19047.125
424.773, 19096.863
425.255, 19077.750
425.738, 19068.449
426.220, 19057.471
426.702, 19034.510
427.184, 19015.199
427.666, 19029.270
428.148, 19103.600
428.630, 19156.439
429.112, 19157.289
429.595, 19105.570
430.077, 19073.090
430.559, 19062.971
431.041, 19064.000
431.523, 19067.240
432.005, 19072.670
432.487, 19078.439
432.969, 19086.279
433.451, 19092.211
433.934, 19087.230
434.416, 19071.439
434.898, 19033.523
435.380, 19092.533
435.862, 19128.014
436.344, 19141.230
436.826, 19065.508
437.308, 19104.633
437.790, 19097.732
438.273, 19088.945
438.755, 19144.236
439.237, 19081.447
439.719, 19135.723
440.201, 19134.711
440.683, 19155.480
441.165, 19180.811
441.647, 19174.170
442.129, 19151.859
442.612, 19129.760
443.094, 19114.631
443.576, 19096.471
444.058, 19056.580
444.540, 19008.859
445.022, 18993.609
445.504, 19088.939
445.987, 19161.561
446.469, 19140.971
446.951, 18958.439
447.433, 18853.650
447.915, 18885.070
448.397, 18968.789
448.879, 19003.711
449.361, 18954.500
449.843, 18918.010
450.326, 18917.240
450.808, 18948.240
451.290, 18968.760
451.772, 18981.369
452.254, 18977.631
452.736, 18943.359
453.218, 18874.789
453.700, 18822.711
454.182, 18793.410
454.665, 18780.850
455.147, 18789.949
455.629, 18817.811
456.111, 18813.930
456.593, 18721.830
457.075, 18582.029
457.557, 18504.340
458.039, 18492.051
458.522, 18503.350
459.004, 18518.471
459.486, 18527.699
459.968, 18511.570
460.450, 18446.369
460.932, 18375.051
461.414, 18333.211
461.896, 18315.090
462.379, 18297.869
462.861, 18275.480
463.343, 18246.750
463.825, 18206.381
464.307, 18145.170
464.789, 18100.090
465.271, 18104.230
465.753, 18123.461
466.235, 18112.391
466.717, 18026.750
467.200, 17949.670
467.682, 17906.650
468.164, 17896.381
468.646, 17863.320
469.128, 17789.539
469.610, 17711.820
470.092, 17654.199
470.574, 17625.131
471.057, 17590.711
471.539, 17549.721
472.021, 17501.359
472.503, 17444.330
472.985, 17379.289
473.467, 17300.311
473.949, 17188.350
474.431, 17055.561
474.914, 16986.400
475.396, 16985.449
475.878, 16998.600
476.360, 16979.840
476.842, 16934.279
477.324, 16874.029
477.806, 16795.750
478.288, 16715.461
478.770, 16645.500
479.253, 16587.430
479.735, 16545.529
480.217, 16538.660
480.699, 16539.119
481.181, 16523.240
481.663, 16487.020
482.145, 16444.789
482.627, 16407.279
483.109, 16365.280
483.592, 16308.990
484.074, 16200.660
484.556, 16113.990
485.038, 16080.120
485.520, 16089.630
486.002, 16071.790
486.484, 16008.410
486.966, 15933.350
487.448, 15862.200
487.931, 15802.530
488.413, 15724.930
488.895, 15627.890
489.377, 15514.360
489.859, 15387.480
490.341, 15243.980
490.823, 15100.280
491.306, 14959.130
491.788, 14821.770
492.270, 14700.670
492.752, 14596.340
493.234, 14494.320
493.716, 14379.630
494.198, 14257.760
494.680, 14154.860
495.162, 14076.100
495.645, 14002.450
496.127, 13911.970
496.609, 13809.720
497.091, 13705.230
497.573, 13593.310
498.055, 13488.700
498.537, 13410.700
499.019, 13357.020
499.501, 13292.360
499.984, 13180.180
500.466, 13064.030
500.948, 12979.290
501.430, 12961.120
501.912, 12928.250
502.394, 12858.320
502.876, 12766.790
503.358, 12682.370
503.841, 12607.770
504.323, 12538.680
504.805, 12473.300
505.287, 12411.740
505.769, 12354.460
506.251, 12300.180
506.733, 12253.010
507.215, 12219.640
507.698, 12202.250
508.180, 12175.800
508.662, 12138.000
509.144, 12089.130
509.626, 12022.950
510.108, 11940.830
510.590, 11868.180
511.072, 11818.200
511.554, 11784.810
512.036, 11760.610
512.519, 11745.400
513.001, 11728.120
513.483, 11697.110
513.965, 11660.500
514.447, 11626.870
514.929, 11595.040
515.411, 11565.463
515.893, 11571.896
516.375, 11569.588
516.858, 11559.005
517.340, 11515.383
517.822, 11514.429
518.304, 11496.375
518.786, 11477.621
519.268, 11482.673
519.750, 11443.852
520.232, 11448.527
520.715, 11435.840
521.197, 11431.099
521.679, 11409.153
522.161, 11392.521
522.643, 11393.096
523.125, 11384.146
523.607, 11360.218
524.089, 11337.940
524.571, 11318.190
525.054, 11299.060
525.536, 11270.920
526.018, 11233.460
526.500, 11196.570
526.982, 11165.030
527.464, 11140.200
527.946, 11128.240
528.429, 11134.980
528.911, 11140.830
529.393, 11124.120
529.875, 11093.200
530.357, 11065.170
530.839, 11045.500
531.321, 11031.930
531.803, 11027.150
532.286, 11030.480
532.768, 11026.620
533.250, 11013.480
533.732, 10990.740
534.214, 10956.210
534.696, 10886.050
535.178, 10846.000
535.660, 10854.790
536.142, 10884.250
536.625, 10887.380
537.107, 10852.490
537.589, 10823.770
538.071, 10814.970
538.553, 10822.040
539.035, 10824.130
539.517, 10821.150
539.999, 10813.660
540.481, 10796.030
540.964, 10773.070
541.446, 10766.660
541.928, 10781.930
542.410, 10798.150
542.892, 10789.830
543.374, 10766.090
543.856, 10745.270
544.338, 10739.560
544.820, 10734.920
545.303, 10716.280
545.785, 10688.490
546.267, 10672.450
546.749, 10694.550
547.231, 10716.780
547.713, 10716.710
548.195, 10683.800
548.677, 10655.480
549.159, 10639.920
549.642, 10627.290
550.124, 10606.150
550.606, 10564.840
551.088, 10542.560
551.570, 10553.350
552.052, 10583.320
552.534, 10583.030
553.016, 10545.290
553.499, 10519.700
553.981, 10545.240
554.463, 10606.940
554.945, 10632.390
555.427, 10620.680
555.909, 10585.580
556.391, 10519.610
556.873, 10442.240
557.356, 10395.810
557.838, 10402.740
558.320, 10415.770
558.802, 10390.760
559.284, 10345.340
559.766, 10315.100
560.248, 10325.730
560.730, 10343.980
561.213, 10357.780
561.695, 10366.680
562.177, 10369.900
562.659, 10364.830
563.141, 10355.800
563.623, 10344.420
564.105, 10328.500
564.587, 10313.790
565.069, 10297.440
565.552, 10285.000
566.034, 10289.150
566.516, 10312.720
566.998, 10326.230
567.480, 10318.890
567.962, 10298.220
568.444, 10282.820
568.926, 10272.340
569.408, 10264.210
569.891, 10253.730
570.373, 10245.570
570.855, 10250.560
571.337, 10270.820
571.819, 10285.600
572.301, 10286.050
572.783, 10270.750
573.265, 10236.610
573.747, 10148.810
574.230, 10086.480
574.712, 10087.600
575.194, 10129.770
575.676, 10156.970
576.158, 10163.770
576.640, 10156.060
577.122, 10131.080
577.604, 10088.920
578.086, 10054.870
578.569, 10029.120
579.051, 10011.660
579.533, 10009.440
580.015, 10022.430
580.497, 10012.050
580.979, 9970.111
581.461, 9923.046
581.943, 9904.025
582.426, 9908.649
582.908, 9923.956
583.390, 9957.201
583.872, 9986.248
584.354, 9978.585
584.836, 9944.365
585.318, 9919.335
585.800, 9938.624
586.282, 9958.372
586.765, 9945.758
587.247, 9890.898
587.729, 9853.827
588.211, 9856.674
588.693, 9875.059
589.175, 9891.377
589.657, 9909.911
590.140, 9917.337
590.622, 9908.448
591.104, 9891.941
591.586, 9887.461
592.068, 9898.435
592.550, 9897.451
593.032, 9870.051
593.514, 9827.280
593.996, 9798.442
594.479, 9783.372
594.961, 9778.581
595.443, 9792.411
595.925, 9810.953
596.407, 9810.367
596.889, 9786.365
597.371, 9764.025
597.853, 9769.238
598.335, 9780.242
598.818, 9773.735
599.300, 9717.523
599.782, 9674.864
600.264, 9665.238
600.746, 9678.606
601.228, 9682.854
601.710, 9662.364
602.192, 9693.720
602.674, 9712.491
603.157, 9719.354
603.639, 9678.638
604.121, 9699.359
604.603, 9695.460
605.085, 9690.550
605.567, 9719.918
606.049, 9686.123
606.531, 9714.947
607.013, 9714.197
607.496, 9717.860
607.978, 9706.984
608.460, 9699.400
608.942, 9704.206
609.424, 9707.951
609.906, 9694.063
610.388, 9672.538
610.870, 9666.208
611.353, 9649.142
611.835, 9619.918
612.317, 9644.638
612.799, 9656.263
613.281, 9655.497
613.763, 9605.231
614.245, 9618.886
614.727, 9606.923
615.209, 9607.645
615.692, 9606.836
616.174, 9603.997
616.656, 9599.553
617.138, 9596.419
617.620, 9593.185
618.102, 9579.171
618.584, 9545.657
619.067, 9512.109
619.549, 9506.906
620.031, 9521.771
620.513, 9535.706
620.995, 9541.170
621.477, 9540.456
621.959, 9529.860
622.441, 9510.978
622.923, 9501.287
623.406, 9510.374
623.888, 9525.664
624.370, 9541.646
624.852, 9559.026
625.334, 9573.932
625.816, 9586.700
626.298, 9596.443
626.780, 9605.232
627.263, 9614.497
627.745, 9601.273
628.227, 9552.187
628.709, 9500.511
629.191, 9478.249
629.673, 9512.293
630.155, 9532.669
630.637, 9540.111
631.119, 9495.886
631.602, 9518.380
632.084, 9514.136
632.566, 9508.795
633.048, 9540.679
633.530, 9503.969
634.012, 9535.262
634.494, 9539.410
634.976, 9537.266
635.458, 9508.286
635.941, 9477.175
636.423, 9467.431
636.905, 9488.742
637.387, 9502.539
637.869, 9505.824
638.351, 9502.968
638.833, 9499.002
639.315, 9494.046
639.797, 9490.670
640.280, 9485.695
640.762, 9487.646
641.244, 9464.248
641.726, 9499.114
642.208, 9519.837
642.690, 9527.177
643.172, 9481.049
643.654, 9503.963
644.137, 9499.209
644.619, 9493.319
645.101, 9525.951
645.583, 9487.600
646.065, 9519.621
646.547, 9523.551
647.029, 9540.337
647.511, 9529.283
647.994, 9526.829
648.476, 9552.223
648.958, 9562.197
649.440, 9547.938
649.922, 9565.542
650.404, 9526.219
650.886, 9536.850
651.368, 9569.033
651.851, 9556.175
652.333, 9574.287
652.815, 9580.604
653.297, 9533.315
653.779, 9556.855
654.261, 9561.830
654.743, 9551.324
655.225, 9540.486
655.707, 9535.437
656.190, 9536.329
656.672, 9548.410
657.154, 9578.652
657.636, 9612.696
658.118, 9646.771
658.600, 9687.788
659.082, 9689.278
659.564, 9639.339
660.046, 9576.014
660.529, 9549.045
661.011, 9552.791
661.493, 9555.938
661.975, 9548.709
662.457, 9542.435
662.939, 9556.417
663.421, 9581.528
663.903, 9597.036
664.385, 9582.475
664.868, 9567.482
665.350, 9567.240
665.832, 9580.303
666.314, 9594.326
666.796, 9617.838
667.278, 9631.072
667.760, 9622.132
668.242, 9587.953
668.724, 9574.544
669.207, 9587.299
669.689, 9603.940
670.171, 9602.157
670.653, 9585.618
671.135, 9586.826
671.617, 9611.233
672.099, 9634.459
672.581, 9627.158
673.064, 9601.824
673.546, 9579.179
674.028, 9561.067
674.510, 9554.819
674.992, 9578.136
675.474, 9614.137
675.956, 9632.992
676.438, 9608.620
676.920, 9591.467
677.403, 9599.757
677.885, 9623.582
678.367, 9616.344
678.849, 9566.471
679.331, 9522.444
679.813, 9506.701
680.295, 9514.068
680.778, 9517.659
681.260, 9517.171
681.742, 9520.592
682.224, 9534.116
682.706, 9554.609
683.188, 9579.140
683.670, 9607.400
684.152, 9635.464
684.634, 9663.474
685.117, 9689.139
685.599, 9711.085
686.081, 9736.927
686.563, 9745.483
687.045, 9724.485
687.527, 9694.064
688.009, 9667.593
688.491, 9645.456
688.973, 9686.131
689.456, 9711.561
689.938, 9722.560
690.420, 9675.921
690.902, 9703.712
691.384, 9701.674
691.866, 9698.413
692.348, 9736.681
692.830, 9726.107
693.312, 9751.742
693.795, 9763.641
694.277, 9737.173
694.759, 9704.343
695.241, 9681.580
695.723, 9670.829
696.205, 9658.335
696.687, 9628.330
697.169, 9614.224
697.652, 9642.708
698.134, 9725.516
698.616, 9771.172
699.098, 9774.446
699.580, 9761.254
700.062, 9757.163
700.544, 9759.065
701.026, 9757.074
701.508, 9750.470
701.991, 9736.542
702.473, 9698.935
702.955, 9656.448
703.437, 9636.185
703.919, 9673.769
704.401, 9703.822
704.883, 9695.051
705.365, 9667.805
705.847, 9669.454
706.330, 9720.533
706.812, 9761.412
707.294, 9777.411
707.776, 9773.814
708.258, 9771.426
708.740, 9770.508
709.222, 9762.145
709.705, 9726.615
710.187, 9686.170
710.669, 9688.684
711.151, 9729.778
711.633, 9773.291
712.115, 9804.318
712.597, 9823.170
713.079, 9828.439
713.561, 9818.607
714.044, 9805.290
714.526, 9782.711
715.008, 9763.491
715.490, 9755.414
715.972, 9761.906
716.454, 9768.185
716.936, 9774.125
717.418, 9779.768
717.901, 9781.897
718.383, 9782.596
718.865, 9795.229
719.347, 9771.903
719.829, 9815.716
720.311, 9843.229
720.793, 9855.325
721.275, 9805.810
721.757, 9835.849
722.240, 9834.007
722.722, 9830.856
723.204, 9872.094
723.686, 9831.540
724.168, 9872.074
724.650, 9874.310
725.132, 9877.245
725.614, 9878.299
726.096, 9874.832
726.579, 9865.957
727.061, 9868.299
727.543, 9904.342
728.025, 9950.257
728.507, 9950.847
728.989, 9913.390
729.471, 9883.732
729.953, 9904.432
730.435, 9931.048
730.918, 9927.762
731.400, 9889.455
731.882, 9862.752
732.364, 9865.398
732.846, 9872.524
733.328, 9871.496
733.810, 9859.619
734.292, 9853.472
734.775, 9852.168
735.257, 9859.040
735.739, 9881.136
736.221, 9914.442
736.703, 9946.709
737.185, 9978.025
737.667, 9997.073
738.149, 9983.362
738.631, 9955.463
739.114, 9936.431
739.596, 9932.521
740.078, 9938.268
740.560, 9963.925
741.042, 9994.376
741.524, 10007.220
742.006, 9990.492
742.489, 9984.726
742.971, 9996.522
743.453, 10020.680
743.935, 10050.820
744.417, 10086.050
744.899, 10115.390
745.381, 10133.560
745.863, 10145.420
746.345, 10155.910
746.828, 10164.730
747.310, 10171.890
747.792, 10183.170
748.274, 10186.620
748.756, 10168.890
749.238, 10134.920
749.720, 10118.820
750.202, 10128.940
750.684, 10147.200
751.167, 10178.490
751.649, 10215.860
752.131, 10184.790
752.613, 10081.820
753.095, 9996.455
753.577, 10006.820
754.059, 10066.910
754.541, 10090.410
755.023, 10077.880
755.506, 10079.700
755.988, 10153.510
756.470, 10230.350
756.952, 10257.210
757.434, 10212.660
757.916, 10189.670
758.398, 10199.040
758.880, 10223.270
759.362, 10257.700
759.845, 10306.250
760.327, 10322.250
760.809, 10300.540
761.291, 10267.580
761.773, 10244.030
762.255, 10230.760
762.737, 10224.120
763.219, 10219.230
763.702, 10243.990
764.184, 10321.190
764.666, 10321.633
765.148, 10377.535
765.630, 10419.983
766.112, 10449.683
766.594, 10428.495
767.076, 10473.021
767.558, 10491.210
768.041, 10522.440
768.523, 10569.650
769.005, 10622.420
769.487, 10680.400
769.969, 10707.860
770.451, 10737.940
770.933, 10879.310
771.416, 10919.806
771.898, 10995.678
772.380, 11062.964
772.862, 11122.119
773.344, 11148.784
773.826, 11217.402
774.308, 11273.100
774.790, 11285.120
775.272, 11331.130
775.755, 11370.990
776.237, 11404.650
776.719, 11435.620
777.201, 11463.810
777.683, 11491.970
778.165, 11527.400
778.647, 11568.060
779.129, 11605.060
779.612, 11622.090
780.094, 11644.120
780.576, 11686.340
781.058, 11747.960
781.540, 11758.588
782.022, 11800.044
782.504, 11834.024
782.986, 11860.917
783.468, 11859.515
783.951, 11894.648
784.433, 11915.142
784.915, 11942.880
785.397, 11959.150
785.879, 12009.710
786.361, 12016.230
786.843, 11984.900
787.325, 11959.680
787.807, 11980.450
788.290, 12006.450
788.772, 12005.120
789.254, 11973.270
789.736, 11957.980
790.218, 11970.300
790.700, 11991.810
791.182, 12020.580
791.664, 12056.520
792.146, 12058.680
792.629, 12022.360
793.111, 11986.430
793.593, 11980.940
794.075, 11994.640
794.557, 12013.020
795.039, 12034.400
795.521, 12040.810
796.003, 11999.270
796.485, 11954.820
796.968, 11942.930
797.450, 11978.470
797.932, 12001.780
798.414, 12015.850
798.896, 12013.050
799.378, 11978.130
799.860, 11910.120
800.343, 11882.580
800.825, 11901.250
801.307, 11922.590
801.789, 11903.670
802.271, 11863.540
802.753, 11823.970
803.235, 11779.812
803.717, 11815.466
804.199, 11831.745
804.682, 11829.692
805.164, 11754.402
805.646, 11773.682
806.128, 11755.062
806.610, 11734.891
807.092, 11767.482
807.574, 11738.020
808.056, 11774.140
808.539, 11764.600
809.021, 11691.700
809.503, 11621.420
809.985, 11626.190
810.467, 11665.080
810.949, 11688.470
811.431, 11682.930
811.913, 11671.690
812.395, 11647.370
812.878, 11629.410
813.360, 11621.710
813.842, 11590.520
814.324, 11525.066
814.806, 11580.896
815.288, 11607.288
815.770, 11605.821
816.252, 11493.058
816.734, 11524.012
817.217, 11497.366
817.699, 11468.362
818.181, 11519.543
818.663, 11476.420
819.145, 11447.270
819.627, 11439.490
820.109, 11395.962
820.591, 11433.093
821.073, 11450.645
821.556, 11449.670
822.038, 11374.680
822.520, 11393.970
823.002, 11390.890
823.484, 11406.220
823.966, 11364.330
824.448, 11291.640
824.930, 11238.340
825.413, 11217.730
825.895, 11209.630
826.377, 11213.000
826.859, 11218.710
827.341, 11215.260
827.823, 11186.800
828.305, 11181.890
828.787, 11211.640
829.269, 11247.140
829.752, 11255.140
830.234, 11237.390
830.716, 11205.510
831.198, 11159.940
831.680, 11108.030
832.162, 11043.460
832.644, 10982.480
833.127, 10950.100
833.609, 10971.990
834.091, 10979.830
834.573, 10940.180
835.055, 10892.470
835.537, 10873.200
836.019, 10892.480
836.501, 10890.420
836.983, 10859.010
837.466, 10819.760
837.948, 10809.250
838.430, 10809.660
838.912, 10769.680
839.394, 10667.420
839.876, 10581.190
840.358, 10573.940
840.840, 10600.210
841.322, 10615.550
841.805, 10610.150
842.287, 10601.240
842.769, 10590.850
843.251, 10574.090
843.733, 10534.390
844.215, 10476.230
844.697, 10468.450
845.179, 10525.210
845.661, 10576.190
846.144, 10538.260
846.626, 10461.720
847.108, 10406.330
847.590, 10386.080
848.072, 10376.520
848.554, 10382.240
849.036, 10387.860
849.518, 10381.740
850.000, 10360.400
850.483, 10342.050
850.965, 10326.790
851.447, 10314.710
851.929, 10307.360
852.411, 10303.020
852.893, 10296.430
853.375, 10286.630
853.857, 10281.870
854.340, 10298.740
854.822, 10314.550
855.304, 10285.979
855.786, 10326.301
856.268, 10349.899
856.750, 10357.674
857.232, 10302.230
857.714, 10328.420
858.196, 10321.895
858.679, 10314.027
859.161, 10351.707
859.643, 10335.820
860.125, 10351.040
860.607, 10347.710
861.089, 10342.560
861.571, 10337.070
862.054, 10332.630
862.536, 10317.080
863.018, 10315.820
863.500, 10349.100
863.982, 10416.870
864.464, 10443.410
864.946, 10425.400
865.428, 10397.450
865.910, 10379.500
866.393, 10368.670
866.875, 10362.600
867.357, 10360.610
867.839, 10357.910
868.321, 10352.180
868.803, 10345.510
869.285, 10340.000
869.767, 10335.360
870.250, 10325.110
870.732, 10305.960
871.214, 10292.540
871.696, 10292.890
872.178, 10303.370
872.660, 10311.640
873.142, 10319.510
873.624, 10335.640
874.106, 10381.610
874.589, 10421.620
875.071, 10425.590
875.553, 10401.500
876.035, 10389.790
876.517, 10398.190
876.999, 10409.680
877.481, 10421.910
877.963, 10432.840
878.445, 10435.250
878.928, 10429.940
879.410, 10423.820
879.892, 10415.060
880.374, 10412.770
880.856, 10433.880
881.338, 10466.930
881.820, 10488.480
882.302, 10483.430
882.784, 10477.260
883.267, 10474.460
883.749, 10472.630
884.231, 10466.440
884.713, 10455.680
885.195, 10445.760
885.677, 10434.860
886.159, 10433.420
886.641, 10465.680
887.123, 10513.600
887.606, 10545.830
888.088, 10541.680
888.570, 10541.010
889.052, 10567.210
889.534, 10594.660
890.016, 10592.490
890.498, 10548.860
890.981, 10534.180
891.463, 10557.100
891.945, 10595.330
892.427, 10635.070
892.909, 10669.870
893.391, 10680.660
893.873, 10659.770
894.355, 10648.080
894.837, 10619.158
895.320, 10657.845
895.802, 10680.121
896.284, 10686.867
896.766, 10631.570
897.248, 10656.389
897.730, 10649.101
898.212, 10640.496
898.694, 10676.591
899.177, 10630.318
899.659, 10665.704
900.141, 10668.493
900.623, 10686.201
901.105, 10671.604
901.587, 10666.984
902.069, 10694.681
902.551, 10704.483
903.033, 10686.168
903.516, 10704.824
903.998, 10657.423
904.480, 10667.987
904.962, 10703.562
905.444, 10686.871
905.926, 10706.117
906.408, 10711.677
906.890, 10655.033
907.372, 10706.566
907.855, 10711.317
908.337, 10668.032
908.819, 10715.859
909.301, 10679.195
909.783, 10672.690
910.265, 10688.881
910.747, 10681.412
911.229, 10711.244
911.711, 10705.142
912.194, 10695.828
912.676, 10700.526
913.158, 10665.520
913.640, 10704.174
914.122, 10692.511
914.604, 10705.859
915.086, 10724.877
915.568, 10700.486
916.050, 10722.051
916.533, 10672.351
917.015, 10704.650
917.497, 10720.580
917.979, 10753.940
918.461, 10781.130
918.943, 10769.930
919.425, 10748.000
919.907, 10746.660
920.390, 10775.830
920.872, 10797.410
921.354, 10801.590
921.836, 10803.230
922.318, 10807.590
922.800, 10815.050
923.282, 10842.560
923.764, 10889.360
924.247, 10924.900
924.729, 10909.160
925.211, 10884.470
925.693, 10900.570
926.175, 10875.595
926.657, 10928.630
927.139, 10962.727
927.621, 10978.905
928.104, 10923.499
928.586, 10960.529
929.068, 10960.516
929.550, 10958.985
930.032, 11009.025
930.514, 10964.031
930.996, 11013.255
931.478, 11024.867
931.960, 11053.693
932.443, 11037.550
932.925, 11020.580
933.407, 11018.500
933.889, 11038.920
934.371, 11066.170
934.853, 11078.270
935.335, 11075.620
935.817, 11083.030
936.299, 11104.970
936.782, 11128.680
937.264, 11149.230
937.746, 11160.500
938.228, 11147.020
938.710, 11122.037
939.192, 11171.342
939.674, 11202.614
940.156, 11216.822
940.638, 11162.862
941.121, 11196.931
941.603, 11195.719
942.085, 11193.062
942.567, 11239.518
943.049, 11195.471
943.531, 11241.150
944.013, 11251.012
944.495, 11252.570
944.978, 11269.540
945.460, 11328.420
945.942, 11371.800
946.424, 11384.710
946.906, 11375.220
947.388, 11360.560
947.870, 11341.980
948.352, 11334.350
948.834, 11350.020
949.317, 11364.070
949.799, 11345.000
950.281, 11312.330
950.763, 11294.630
951.245, 11307.800
951.727, 11324.040
952.209, 11345.600
952.692, 11365.200
953.174, 11370.650
953.656, 11365.130
954.138, 11369.450
954.620, 11385.230
955.102, 11414.260
955.584, 11483.220
956.066, 11547.510
956.548, 11562.580
957.031, 11517.130
957.513, 11488.750
957.995, 11486.090
958.477, 11488.880
958.959, 11491.080
959.441, 11490.470
959.923, 11468.120
960.405, 11430.980
960.888, 11415.860
961.370, 11476.720
961.852, 11531.370
962.334, 11518.490
962.816, 11462.790
963.298, 11431.610
963.780, 11430.250
964.262, 11446.020
964.744, 11481.040
965.227, 11523.380
965.709, 11566.050
966.191, 11600.650
966.673, 11599.930
967.155, 11550.680
967.637, 11498.700
968.119, 11465.690
968.601, 11443.680
969.083, 11427.820
969.566, 11419.590
970.048, 11406.730
970.530, 11388.220
971.012, 11369.080
971.494, 11352.670
971.976, 11337.770
972.458, 11321.270
972.940, 11303.590
973.422, 11287.300
973.905, 11263.880
974.387, 11253.340
974.869, 11272.790
975.351, 11308.060
975.833, 11317.940
976.315, 11301.240
976.797, 11271.140
977.279, 11223.610
977.761, 11181.790
978.244, 11145.899
978.726, 11172.160
979.208, 11183.336
979.690, 11180.234
980.172, 11120.102
980.654, 11133.614
981.136, 11117.610
981.619, 11100.398
982.101, 11124.276
982.583, 11099.830
983.065, 11117.800
983.547, 11134.950
984.029, 11113.570
984.511, 11076.850
984.993, 11041.910
985.475, 11010.600
985.958, 10981.720
986.440, 10944.150
986.922, 10930.830
987.404, 10963.470
987.886, 11016.570
988.368, 11010.210
988.850, 10959.990
989.332, 10936.440
989.815, 10982.400
990.297, 11029.570
990.779, 11032.630
991.261, 11014.100
991.743, 11004.720
992.225, 11013.190
992.707, 11009.560
993.189, 10990.020
993.671, 10969.430
994.154, 10960.990
994.636, 10962.460
995.118, 10933.763
995.600, 10970.807
996.082, 10991.892
996.564, 10997.877
997.046, 10943.533
997.528, 10967.092
998.010, 10966.630
998.493, 10920.210
998.975, 10953.600
999.457, 10997.940
999.939, 11034.060
1000.421, 11057.360
1000.903, 11045.840
1001.385, 11021.800
1001.867, 11023.870
1002.349, 11106.040
1002.832, 11149.760
1003.314, 11134.130
1003.796, 11095.340
1004.278, 11066.220
1004.760, 11046.010
1005.242, 11031.800
1005.724, 11023.310
1006.206, 11023.230
1006.689, 11041.980
1007.171, 11063.010
1007.653, 11073.900
1008.135, 11073.920
1008.617, 11076.580
1009.099, 11088.110
1009.581, 11081.750
1010.063, 11036.600
1010.545, 10984.710
1011.028, 11007.310
1011.510, 11075.060
1011.992, 11113.680
1012.474, 11072.850
1012.956, 11040.200
1013.438, 11059.760
1013.920, 11093.490
1014.402, 11100.380
1014.885, 11073.040
1015.367, 11085.550
1015.849, 11143.160
1016.331, 11200.120
1016.813, 11221.940
1017.295, 11219.040
1017.777, 11186.890
1018.259, 11131.920
1018.741, 11115.420
1019.224, 11178.660
1019.706, 11236.650
1020.188, 11270.910
1020.670, 11284.170
1021.152, 11273.980
1021.634, 11246.580
1022.116, 11230.450
1022.598, 11238.530
1023.081, 11249.980
1023.563, 11244.410
1024.045, 11239.660
1024.527, 11257.810
1025.009, 11310.010
1025.491, 11337.750
1025.973, 11334.860
1026.455, 11334.570
1026.938, 11376.080
1027.420, 11429.770
1027.902, 11439.880
1028.384, 11413.840
1028.866, 11398.230
1029.348, 11433.400
1029.830, 11451.750
1030.312, 11422.330
1030.794, 11376.210
1031.276, 11390.690
1031.759, 11459.100
1032.241, 11506.750
1032.723, 11514.590
1033.205, 11509.720
1033.687, 11518.760
1034.169, 11525.140
1034.651, 11504.890
1035.133, 11441.300
1035.616, 11424.810
1036.098, 11466.960
1036.580, 11520.460
1037.062, 11563.740
1037.544, 11594.330
1038.026, 11593.910
1038.508, 11572.640
1038.990, 11566.100
1039.473, 11596.290
1039.955, 11635.760
1040.437, 11695.590
1040.919, 11747.350
1041.401, 11739.190
1041.883, 11671.200
1042.365, 11628.500
1042.847, 11622.300
1043.329, 11633.990
1043.812, 11652.200
1044.294, 11676.760
1044.776, 11711.590
1045.258, 11757.850
1045.740, 11788.980
1046.222, 11796.810
1046.704, 11810.890
1047.186, 11854.080
1047.668, 11899.240
1048.151, 11867.880
1048.633, 11788.120
1049.115, 11734.220
1049.597, 11742.340
1050.079, 11767.460
1050.561, 11797.350
1051.043, 11836.360
1051.525, 11896.160
1052.008, 11980.510
1052.490, 12026.140
1052.972, 12030.170
1053.454, 12021.630
1053.936, 11981.040
1054.418, 11968.451
1054.900, 12016.906
1055.382, 12050.541
1055.865, 12070.188
1056.347, 12033.793
1056.829, 12069.723
1057.311, 12076.671
1057.793, 12082.426
1058.275, 12112.580
1058.757, 12136.370
1059.239, 12153.270
1059.721, 12154.900
1060.203, 12149.810
1060.686, 12137.030
1061.168, 12122.740
1061.650, 12105.540
1062.132, 12087.730
1062.614, 12110.290
1063.096, 12171.130
1063.578, 12216.000
1064.060, 12199.640
1064.543, 12173.260
1065.025, 12179.730
1065.507, 12203.360
1065.989, 12211.040
1066.471, 12188.870
1066.953, 12185.900
1067.435, 12211.130
1067.917, 12236.010
1068.400, 12228.680
1068.882, 12201.090
1069.364, 12169.830
1069.846, 12137.160
1070.328, 12111.390
1070.810, 12082.560
1071.292, 12079.790
1071.774, 12124.210
1072.256, 12191.280
1072.739, 12207.500
1073.221, 12181.250
1073.703, 12166.660
1074.185, 12182.560
1074.667, 12203.050
1075.149, 12225.030
1075.631, 12232.590
1076.113, 12201.910
1076.596, 12123.600
1077.078, 12091.860
1077.560, 12113.390
1078.042, 12135.740
1078.524, 12120.790
1079.006, 12091.570
1079.488, 12079.360
1079.970, 12077.140
1080.453, 12065.960
1080.935, 12024.550
1081.417, 11998.970
1081.899, 11997.710
1082.381, 12004.930
1082.863, 12001.120
1083.345, 11990.140
1083.827, 11987.460
1084.309, 11993.930
1084.792, 11990.460
1085.274, 11938.780
1085.756, 11896.341
1086.238, 11932.427
1086.720, 11949.452
1087.202, 11948.438
1087.684, 11875.364
1088.166, 11895.342
1088.648, 11878.029
1089.131, 11859.171
1089.613, 11892.245
1090.095, 11829.652
1090.577, 11861.902
1091.059, 11849.360
1091.541, 11838.850
1092.023, 11890.850
1092.505, 11932.060
1092.988, 11902.570
1093.470, 11847.040
1093.952, 11846.710
1094.434, 11882.510
1094.916, 11906.010
1095.398, 11893.940
1095.880, 11875.420
1096.362, 11845.510
1096.844, 11822.340
1097.327, 11835.960
1097.809, 11874.480
1098.291, 11881.300
1098.773, 11854.820
1099.255, 11841.200
1099.737, 11897.720
1100.219, 11941.670
1100.701, 11922.910
1101.183, 11864.090
1101.666, 11815.310
1102.148, 11777.000
1102.630, 11767.000
1103.112, 11797.140
1103.594, 11722.534
1104.076, 11796.053
1104.558, 11833.617
1105.040, 11837.155
1105.523, 11704.747
1106.005, 11747.881
1106.487, 11720.672
1106.969, 11690.580
1107.451, 11758.418
1107.933, 11645.799
1108.415, 11712.084
1108.897, 11706.954
1109.380, 11734.491
1109.862, 11691.269
1110.344, 11669.908
1110.826, 11659.440
1111.308, 11650.300
1111.790, 11672.560
1112.272, 11714.590
1112.754, 11740.420
1113.236, 11748.440
1113.719, 11732.880
1114.201, 11645.500
1114.683, 11589.440
1115.165, 11616.610
1115.647, 11683.070
1116.129, 11729.310
1116.611, 11754.950
1117.093, 11757.090
1117.575, 11734.240
1118.058, 11703.500
1118.540, 11653.820
1119.022, 11621.260
1119.504, 11650.910
1119.986, 11727.920
1120.468, 11750.930
1120.950, 11711.780
1121.432, 11691.130
1121.915, 11716.930
1122.397, 11758.920
1122.879, 11795.770
1123.361, 11820.960
1123.843, 11821.910
1124.325, 11785.080
1124.807, 11772.640
1125.289, 11794.030
1125.771, 11813.520
1126.254, 11807.820
1126.736, 11791.060
1127.218, 11786.680
1127.700, 11794.010
1128.182, 11811.450
1128.664, 11846.450
1129.146, 11879.500
1129.628, 11908.530
1130.110, 11934.370
1130.593, 11960.710
1131.075, 11984.450
1131.557, 11988.810
1132.039, 11976.400
1132.521, 11968.330
1133.003, 11993.260
1133.485, 12002.120
1133.967, 11959.520
1134.450, 11905.080
1134.932, 11913.340
1135.414, 11976.920
1135.896, 12001.260
1136.378, 11973.320
1136.860, 11946.690
1137.342, 11968.550
1137.824, 11998.520
1138.307, 12012.090
1138.789, 12010.320
1139.271, 11991.650
1139.753, 11954.120
1140.235, 11930.460
1140.717, 11931.290
1141.199, 11941.750
1141.681, 11943.070
1142.163, 11948.130
1142.646, 11982.540
1143.128, 12058.230
1143.610, 12051.370
1144.092, 11937.310
1144.574, 11865.640
1145.056, 11933.570
1145.538, 12043.780
1146.020, 12063.350
1146.502, 12025.350
1146.985, 11982.770
1147.467, 11936.030
1147.949, 11914.940
1148.431, 11926.910
1148.913, 11947.040
1149.395, 11955.050
1149.877, 11959.330
1150.359, 11988.540
1150.842, 12030.540
1151.324, 12046.070
1151.806, 11964.390
1152.288, 11940.930
1152.770, 12020.490
1153.252, 12118.850
1153.734, 12133.230
1154.216, 12090.830
1154.698, 12080.510
1155.181, 12104.860
1155.663, 12127.610
1156.145, 12133.320
1156.627, 12131.000
1157.109, 12116.170
1157.591, 12103.240
1158.073, 12130.320
1158.555, 12186.630
1159.037, 12203.090
1159.520, 12167.560
1160.002, 12134.870
1160.484, 12151.630
1160.966, 12166.770
1161.448, 12145.930
1161.930, 12102.030
1162.412, 12082.270
1162.894, 12086.110
1163.377, 12110.300
1163.859, 12160.540
1164.341, 12205.330
1164.823, 12230.920
1165.305, 12232.660
1165.787, 12195.710
1166.269, 12124.020
1166.751, 12094.020
1167.234, 12106.170
1167.716, 12123.440
1168.198, 12129.280
1168.680, 12135.700
1169.162, 12157.740
1169.644, 12184.450
1170.126, 12202.160
1170.608, 12210.260
1171.090, 12206.550
1171.573, 12189.070
1172.055, 12175.980
1172.537, 12183.250
1173.019, 12196.370
1173.501, 12195.940
1173.983, 12190.570
1174.465, 12200.290
1174.947, 12238.520
1175.430, 12251.650
1175.912, 12231.670
1176.394, 12218.090
1176.876, 12259.500
1177.358, 12316.180
1177.840, 12335.060
1178.322, 12324.860
1178.804, 12325.040
1179.286, 12357.280
1179.769, 12349.690
1180.251, 12302.545
1180.733, 12365.669
1181.215, 12402.025
1181.697, 12413.054
1182.179, 12322.893
1182.661, 12363.396
1183.143, 12351.536
1183.625, 12337.528
1184.108, 12396.428
1184.590, 12320.983
1185.072, 12378.723
1185.554, 12383.297
1186.036, 12375.550
1186.518, 12371.440
1187.000, 12343.040
1187.482, 12331.950
1187.965, 12363.470
1188.447, 12380.170
1188.929, 12356.830
1189.411, 12322.670
1189.893, 12339.520
1190.375, 12385.680
1190.857, 12416.020
1191.339, 12419.350
1191.822, 12417.920
1192.304, 12413.240
1192.786, 12412.270
1193.268, 12424.050
1193.750, 12435.630
1194.232, 12397.500
1194.714, 12333.630
1195.196, 12309.440
1195.678, 12361.840
1196.161, 12404.250
1196.643, 12418.770
1197.125, 12418.180
1197.607, 12402.410
1198.089, 12379.710
1198.571, 12384.250
1199.053, 12406.720
1199.535, 12416.850
1200.017, 12392.630
1200.500, 12373.610
1200.982, 12367.950
1201.464, 12369.810
1201.946, 12373.870
1202.428, 12382.010
1202.910, 12410.830
1203.392, 12452.660
1203.874, 12476.590
1204.357, 12441.840
1204.839, 12425.610
1205.321, 12460.370
1205.803, 12497.150
1206.285, 12478.120
1206.767, 12419.700
1207.249, 12397.560
1207.731, 12410.280
1208.214, 12437.080
1208.696, 12483.460
1209.178, 12523.550
1209.660, 12562.580
1210.142, 12579.900
1210.624, 12528.470
1211.106, 12433.580
1211.588, 12399.560
1212.070, 12428.600
1212.552, 12464.430
1213.035, 12489.630
1213.517, 12503.510
1213.999, 12500.880
1214.481, 12494.690
1214.963, 12461.202
1215.445, 12487.091
1215.927, 12498.564
1216.409, 12496.399
1216.892, 12439.734
1217.374, 12453.441
1217.856, 12438.954
1218.338, 12423.308
1218.820, 12446.919
1219.302, 12424.360
1219.784, 12419.450
1220.266, 12427.630
1220.749, 12453.450
1221.231, 12468.890
1221.713, 12460.520
1222.195, 12438.530
1222.677, 12396.900
1223.159, 12354.530
1223.641, 12364.430
1224.123, 12407.680
1224.605, 12424.280
1225.088, 12398.490
1225.570, 12379.190
1226.052, 12384.220
1226.534, 12402.800
1227.016, 12439.710
1227.498, 12479.660
1227.980, 12477.270
1228.462, 12447.500
1228.944, 12427.850
1229.427, 12424.800
1229.909, 12445.010
1230.391, 12523.960
1230.873, 12577.530
1231.355, 12560.560
1231.837, 12503.770
1232.319, 12482.620
1232.801, 12486.120
1233.284, 12487.540
1233.766, 12477.040
1234.248, 12475.370
1234.730, 12491.300
1235.212, 12507.390
1235.694, 12513.500
1236.176, 12514.910
1236.658, 12536.960
1237.141, 12562.380
1237.623, 12546.420
1238.105, 12446.740
1238.587, 12386.160
1239.069, 12385.750
1239.551, 12406.400
1240.033, 12435.290
1240.515, 12462.340
1240.997, 12465.890
1241.479, 12450.690
1241.962, 12424.880
1242.444, 12374.930
1242.926, 12354.820
1243.408, 12376.750
1243.890, 12401.580
1244.372, 12402.830
1244.854, 12391.770
1245.336, 12388.010
1245.819, 12387.320
1246.301, 12379.850
1246.783, 12341.730
1247.265, 12347.350
1247.747, 12409.580
1248.229, 12465.590
1248.711, 12466.350
1249.193, 12438.720
1249.676, 12412.910
1250.158, 12389.820
1250.640, 12372.830
1251.122, 12363.410
1251.604, 12361.600
1252.086, 12371.710
1252.568, 12366.590
1253.050, 12302.190
1253.532, 12233.860
1254.015, 12224.290
1254.497, 12255.600
1254.979, 12294.240
1255.461, 12344.940
1255.943, 12367.060
1256.425, 12356.880
1256.907, 12347.140
1257.389, 12371.700
1257.871, 12396.590
1258.354, 12384.000
1258.836, 12355.060
1259.318, 12356.280
1259.800, 12396.130
1260.282, 12390.310
1260.764, 12334.920
##END=



