##NAMES=Orthoserpierite
##RRUFFID=R050292
##IDEAL CHEMISTRY=CaCu^2+^_4_(S^6+^O_4_)_2_(OH)_6_&#183;3H_2_O
##LOCALITY=Platosa mine, Bermijillo, Durango, Mexico
##OWNER=RRUFF
##SOURCE=Peter Megaw
##DESCRIPTION=Turquoise-blue bladed crystals
##STATUS=The identification of this mineral is confirmed by single-crystal X-ray diffraction and chemical analysis.
##URL=rruff.info/R050292
##MEASURED CHEMISTRY=Ca_1.00_(Cu_3.19_Zn_0.81_)_Σ=4_(S_1.00_O_4_)_2_(OH)_6_·3H_2_O
113.462, 7341.000
114.850, 7578.000
116.238, 7869.000
117.626, 8199.000
119.013, 8239.000
120.401, 8134.000
121.788, 7952.000
123.175, 7855.000
124.562, 7765.000
125.948, 7746.000
127.335, 7756.000
128.721, 7793.000
130.107, 7787.000
131.492, 7899.000
132.878, 7949.000
134.263, 7964.000
135.648, 7902.000
137.033, 7959.000
138.418, 7879.000
139.802, 7972.000
141.186, 8050.000
142.570, 8022.000
143.954, 7998.000
145.337, 8000.000
146.721, 8055.000
148.104, 8137.000
149.487, 8097.000
150.869, 8165.000
152.252, 8118.000
153.634, 8140.000
155.016, 8100.000
156.398, 8170.000
157.779, 8188.000
159.161, 8197.025
160.542, 8209.887
161.923, 8219.000
163.303, 8216.000
164.684, 8192.000
166.064, 8243.000
167.444, 8322.000
168.824, 8467.000
170.204, 8576.000
171.583, 8538.000
172.962, 8500.000
174.341, 8462.000
175.720, 8240.000
177.099, 8214.000
178.477, 8156.000
179.855, 8100.000
181.233, 8048.000
182.611, 7957.000
183.988, 7944.000
185.365, 8050.000
186.743, 8022.000
188.119, 7949.000
189.496, 8095.000
190.872, 8013.000
192.249, 8064.000
193.625, 8146.000
195.000, 8118.000
196.376, 8305.000
197.751, 8328.000
199.126, 8399.000
200.501, 8514.000
201.876, 8546.000
203.250, 8686.536
204.625, 8679.000
205.999, 8910.000
207.372, 8999.000
208.746, 9039.000
210.119, 9141.000
211.493, 9123.000
212.866, 9104.000
214.238, 9310.000
215.611, 9481.000
216.983, 9704.000
218.355, 9629.000
219.727, 9699.000
221.099, 9610.000
222.470, 9617.000
223.842, 9597.000
225.213, 9465.000
226.584, 9448.000
227.954, 9371.000
229.325, 9438.000
230.695, 9367.000
232.065, 9490.000
233.435, 9551.000
234.804, 9542.000
236.173, 9673.000
237.543, 9844.000
238.911, 9956.000
240.280, 10133.670
241.649, 10300.000
243.017, 10510.000
244.385, 10610.000
245.753, 10870.000
247.121, 10970.000
248.488, 11130.000
249.855, 11350.000
251.222, 11410.000
252.589, 11400.000
253.956, 11210.000
255.322, 11180.000
256.688, 10990.000
258.054, 10790.000
259.420, 10556.788
260.785, 10320.000
262.150, 9988.000
263.516, 9774.000
264.880, 9545.000
266.245, 9313.000
267.610, 9123.000
268.974, 9066.000
270.338, 8850.000
271.702, 8870.000
273.065, 8547.000
274.429, 8617.000
275.792, 8556.000
277.155, 8474.000
278.518, 8358.000
279.880, 8379.000
281.242, 8305.276
282.605, 8234.000
283.966, 8277.000
285.328, 8265.000
286.690, 8316.000
288.051, 8348.000
289.412, 8295.000
290.773, 8351.000
292.133, 8312.000
293.494, 8326.000
294.854, 8445.000
296.214, 8398.000
297.574, 8430.000
298.934, 8394.000
300.293, 8549.000
301.652, 8615.000
303.011, 8627.000
304.370, 8527.000
305.728, 8608.000
307.087, 8601.000
308.445, 8702.000
309.803, 8816.000
311.160, 8839.000
312.518, 8852.000
313.875, 8974.000
315.232, 9106.000
316.589, 9224.000
317.946, 9390.000
319.302, 9553.000
320.658, 9608.000
322.014, 9728.000
323.370, 9914.000
324.726, 9941.000
326.081, 10110.000
327.436, 9993.000
328.791, 10030.000
330.146, 10120.000
331.500, 10150.000
332.855, 10150.000
334.209, 10191.731
335.563, 10160.000
336.917, 10190.000
338.270, 10160.000
339.623, 10100.000
340.976, 10080.000
342.329, 10060.000
343.682, 9954.000
345.034, 9954.000
346.387, 9942.000
347.739, 9618.000
349.090, 9639.000
350.442, 9442.000
351.793, 9473.000
353.145, 9454.000
354.496, 9356.000
355.846, 9326.000
357.197, 9285.259
358.547, 9249.883
359.897, 9224.000
361.247, 9191.000
362.597, 9177.807
363.947, 9097.000
365.296, 9153.000
366.645, 9143.000
367.994, 9141.000
369.343, 9259.000
370.691, 9220.000
372.039, 9310.000
373.387, 9167.000
374.735, 9213.000
376.083, 9290.000
377.430, 9275.000
378.778, 9326.000
380.125, 9325.000
381.471, 9373.204
382.818, 9474.000
384.164, 9494.000
385.511, 9588.000
386.857, 9694.000
388.202, 9646.000
389.548, 9740.000
390.893, 9917.000
392.238, 10010.000
393.583, 9955.000
394.928, 10180.000
396.273, 10170.000
397.617, 10390.000
398.961, 10550.000
400.305, 10700.000
401.649, 10760.000
402.992, 10970.000
404.335, 11370.000
405.678, 11380.000
407.021, 11890.000
408.364, 12360.000
409.706, 12430.000
411.049, 13020.000
412.391, 13450.000
413.733, 14030.000
415.074, 14350.000
416.416, 15050.000
417.757, 15580.000
419.098, 15980.000
420.439, 16340.000
421.779, 16610.000
423.120, 16760.000
424.460, 16870.000
425.800, 16810.000
427.140, 16640.000
428.479, 16350.000
429.818, 15830.000
431.158, 15410.000
432.497, 14790.000
433.835, 14220.000
435.174, 13990.000
436.512, 13560.000
437.850, 13400.000
439.188, 13330.000
440.526, 13240.000
441.863, 13150.000
443.201, 13260.000
444.538, 13320.000
445.875, 13410.000
447.211, 13230.000
448.548, 13130.000
449.884, 13090.000
451.220, 12880.000
452.556, 12730.000
453.892, 12630.000
455.227, 12630.000
456.562, 12660.000
457.897, 12680.000
459.232, 12690.000
460.567, 12780.000
461.901, 12830.000
463.235, 13070.000
464.569, 12940.000
465.903, 13120.000
467.237, 13110.000
468.570, 13190.000
469.903, 13150.000
471.236, 13070.000
472.569, 13150.000
473.902, 13190.000
475.234, 13420.000
476.566, 13310.000
477.898, 13360.000
479.230, 13230.000
480.562, 13350.000
481.893, 13460.000
483.224, 13260.000
484.555, 13390.000
485.886, 13390.000
487.216, 13360.000
488.547, 13170.000
489.877, 12940.000
491.207, 12770.000
492.536, 12820.000
493.866, 12440.000
495.195, 12570.000
496.524, 12260.000
497.853, 12170.000
499.182, 12000.000
500.510, 11990.000
501.839, 11880.000
503.167, 11710.000
504.495, 11620.000
505.822, 11540.000
507.150, 11350.000
508.477, 11280.000
509.804, 11210.000
511.131, 11000.000
512.458, 11020.000
513.784, 10990.000
515.110, 10900.000
516.436, 10680.000
517.762, 10750.000
519.088, 10610.000
520.413, 10630.000
521.738, 10480.000
523.063, 10490.000
524.388, 10680.000
525.713, 10470.000
527.037, 10560.000
528.362, 10420.000
529.686, 10570.000
531.009, 10470.000
532.333, 10410.000
533.656, 10390.000
534.980, 10600.000
536.303, 10400.000
537.625, 10540.000
538.948, 10440.000
540.270, 10530.000
541.593, 10480.000
542.915, 10470.000
544.236, 10560.000
545.558, 10430.000
546.879, 10570.000
548.201, 10500.000
549.522, 10530.000
550.842, 10590.000
552.163, 10500.000
553.483, 10680.000
554.803, 10590.000
556.123, 10620.000
557.443, 10640.000
558.763, 10530.000
560.082, 10800.000
561.401, 10580.000
562.720, 10770.000
564.039, 10780.000
565.358, 10770.000
566.676, 10880.000
567.994, 10850.000
569.312, 10730.000
570.630, 10940.000
571.947, 10770.000
573.265, 11020.000
574.582, 10850.000
575.899, 10990.000
577.216, 11020.000
578.532, 11070.000
579.848, 11160.000
581.165, 11140.000
582.481, 11270.000
583.796, 11306.073
585.112, 11260.000
586.427, 11460.000
587.742, 11510.000
589.057, 11650.000
590.372, 11700.000
591.687, 11880.000
593.001, 12160.000
594.315, 12050.000
595.629, 12370.000
596.943, 12600.000
598.256, 12550.000
599.570, 12860.000
600.883, 12900.000
602.196, 13080.000
603.508, 13090.000
604.821, 13190.000
606.133, 13320.000
607.445, 13210.000
608.757, 13160.000
610.069, 13160.000
611.381, 13250.000
612.692, 13220.000
614.003, 13090.000
615.314, 13180.000
616.625, 13060.000
617.935, 12960.000
619.246, 12990.000
620.556, 12830.000
621.866, 12640.000
623.175, 12670.000
624.485, 12500.000
625.794, 12520.000
627.103, 12380.000
628.412, 12330.000
629.721, 12180.000
631.030, 12150.000
632.338, 12270.000
633.646, 12140.000
634.954, 12230.000
636.262, 12000.000
637.569, 12160.000
638.877, 12130.000
640.184, 12110.000
641.491, 12400.000
642.798, 12230.000
644.104, 12350.000
645.410, 12450.000
646.717, 12470.000
648.023, 12560.000
649.328, 12590.000
650.634, 12460.000
651.939, 12420.000
653.244, 12500.000
654.549, 12600.000
655.854, 12290.000
657.159, 12440.000
658.463, 12330.000
659.767, 12320.000
661.071, 12350.000
662.375, 12150.000
663.679, 12280.000
664.982, 12160.000
666.285, 12200.000
667.588, 12080.000
668.891, 12000.000
670.193, 12040.000
671.496, 11990.000
672.798, 12110.000
674.100, 12030.000
675.402, 11830.000
676.703, 12220.000
678.005, 11930.000
679.306, 12040.000
680.607, 12130.000
681.908, 11910.000
683.208, 12210.000
684.509, 12050.000
685.809, 12040.000
687.109, 11970.000
688.409, 12050.000
689.708, 12020.000
691.008, 12100.000
692.307, 11910.000
693.606, 12150.000
694.905, 11890.000
696.204, 12230.000
697.502, 12020.000
698.800, 11980.000
700.098, 12290.000
701.396, 11990.000
702.694, 12140.000
703.991, 12220.000
705.289, 11830.000
706.586, 12210.000
707.883, 11880.000
709.179, 12180.000
710.476, 12240.000
711.772, 12160.000
713.068, 12130.000
714.364, 12230.000
715.660, 12190.000
716.955, 12240.000
718.250, 12200.000
719.545, 12120.000
720.840, 12310.000
722.135, 12170.000
723.430, 12380.000
724.724, 12360.000
726.018, 12320.000
727.312, 12320.000
728.606, 12280.000
729.899, 12260.000
731.192, 12250.000
732.486, 12510.000
733.779, 12310.000
735.071, 12530.000
736.364, 12370.000
737.656, 12340.000
738.948, 12500.000
740.240, 12370.000
741.532, 12470.000
742.824, 12330.000
744.115, 12530.000
745.406, 12550.000
746.697, 12540.000
747.988, 12560.000
749.279, 12576.660
750.569, 12602.176
751.859, 12610.000
753.149, 12660.000
754.439, 12660.000
755.729, 12660.000
757.018, 12500.000
758.307, 12730.000
759.596, 12540.000
760.885, 12760.000
762.174, 12650.000
763.462, 12730.000
764.751, 12610.000
766.039, 12760.000
767.327, 12880.000
768.614, 12790.000
769.902, 12790.000
771.189, 12750.000
772.476, 12780.000
773.763, 12850.000
775.050, 12650.000
776.336, 12819.438
777.622, 13040.000
778.909, 12910.000
780.194, 13000.000
781.480, 12830.000
782.766, 13080.000
784.051, 12980.000
785.336, 12940.000
786.621, 12990.000
787.906, 12990.000
789.191, 13130.000
790.475, 13080.000
791.759, 13200.000
793.043, 13010.000
794.327, 13050.000
795.610, 13040.000
796.894, 13130.000
798.177, 13120.000
799.460, 13090.000
800.743, 13210.000
802.026, 13170.000
803.308, 13160.000
804.590, 13100.000
805.872, 13320.000
807.154, 13250.000
808.436, 13190.000
809.717, 13040.000
810.999, 13380.000
812.280, 13270.000
813.561, 13340.000
814.841, 13270.000
816.122, 13480.000
817.402, 13350.000
818.682, 13410.000
819.962, 13350.000
821.242, 13260.000
822.521, 13560.000
823.801, 13170.000
825.080, 13500.000
826.359, 13390.000
827.638, 13410.000
828.916, 13560.000
830.195, 13390.000
831.473, 13500.000
832.751, 13510.000
834.029, 13570.000
835.306, 13330.000
836.584, 13480.000
837.861, 13470.000
839.138, 13560.000
840.415, 13650.000
841.691, 13580.000
842.968, 13670.000
844.244, 13540.000
845.520, 13540.000
846.796, 13710.000
848.072, 13580.000
849.347, 13590.000
850.623, 13700.000
851.898, 13620.000
853.173, 13750.000
854.447, 13520.000
855.722, 13730.000
856.996, 13820.000
858.270, 13700.000
859.544, 13720.000
860.818, 13830.000
862.092, 13770.000
863.365, 13710.000
864.638, 13460.000
865.911, 13890.000
867.184, 13620.000
868.457, 13740.000
869.729, 13810.000
871.002, 13780.000
872.274, 13930.000
873.546, 13880.000
874.817, 13700.000
876.089, 13770.000
877.360, 13810.000
878.631, 13850.000
879.902, 13910.000
881.173, 14050.000
882.443, 14060.000
883.714, 13830.000
884.984, 13800.000
886.254, 14100.000
887.523, 13870.000
888.793, 14060.000
890.062, 13920.000
891.332, 14040.000
892.601, 14170.000
893.869, 14100.000
895.138, 14198.229
896.407, 14070.000
897.675, 14150.000
898.943, 14270.000
900.211, 14050.000
901.478, 13980.000
902.746, 14290.000
904.013, 14120.000
905.280, 14090.000
906.547, 14270.000
907.814, 14370.000
909.080, 14440.000
910.347, 14280.000
911.613, 14260.000
912.879, 14310.000
914.145, 14430.000
915.410, 14410.000
916.676, 14490.000
917.941, 14410.000
919.206, 14410.000
920.471, 14390.000
921.735, 14640.000
923.000, 14390.000
924.264, 14500.000
925.528, 14460.000
926.792, 14790.000
928.056, 14400.000
929.319, 14800.000
930.583, 14640.000
931.846, 14680.000
933.109, 14860.000
934.371, 14740.000
935.634, 14810.000
936.896, 14810.000
938.159, 14830.000
939.421, 14990.000
940.682, 14740.000
941.944, 15110.000
943.205, 14810.000
944.467, 15030.000
945.728, 15060.000
946.989, 15060.000
948.249, 15050.000
949.510, 14990.000
950.770, 15081.872
952.030, 15260.000
953.290, 15200.000
954.550, 15320.000
955.809, 15280.000
957.069, 15310.000
958.328, 15500.000
959.587, 15450.000
960.846, 15620.000
962.104, 15700.000
963.363, 15700.000
964.621, 15610.000
965.879, 15770.000
967.137, 15990.000
968.394, 16140.000
969.652, 15980.000
970.909, 16320.000
972.166, 16200.000
973.423, 16800.000
974.680, 16990.000
975.936, 17240.000
977.193, 17860.000
978.449, 18470.000
979.705, 19060.000
980.961, 20700.000
982.216, 22450.000
983.472, 25790.000
984.727, 30160.000
985.982, 35210.000
987.237, 39680.000
988.492, 42040.000
989.746, 44160.000
991.000, 46350.000
992.254, 45380.000
993.508, 42760.000
994.762, 37650.000
996.016, 31800.000
997.269, 27210.000
998.522, 22960.000
999.775, 21110.000
1001.028, 19530.000
1002.281, 18560.000
1003.533, 17740.000
1004.785, 17460.000
1006.037, 17010.000
1007.289, 17040.000
1008.541, 16640.000
1009.792, 16580.000
1011.044, 16580.000
1012.295, 16470.000
1013.546, 16550.000
1014.796, 16240.000
1016.047, 16340.000
1017.297, 16170.000
1018.547, 16290.000
1019.797, 16350.000
1021.047, 16110.000
1022.297, 16290.000
1023.546, 16090.000
1024.796, 16220.000
1026.045, 16100.000
1027.294, 16250.000
1028.542, 16130.000
1029.791, 16280.000
1031.039, 16090.000
1032.287, 16310.000
1033.535, 16550.000
1034.783, 16000.000
1036.031, 16330.000
1037.278, 16270.000
1038.525, 16180.000
1039.772, 16590.000
1041.019, 16360.000
1042.266, 16230.000
1043.512, 16410.000
1044.758, 16420.000
1046.005, 16730.000
1047.250, 16672.604
1048.496, 16240.000
1049.742, 16680.000
1050.987, 16560.000
1052.232, 16620.000
1053.477, 16660.000
1054.722, 16750.000
1055.967, 16798.832
1057.211, 16890.000
1058.455, 16870.000
1059.699, 17010.000
1060.943, 16940.000
1062.187, 17250.000
1063.430, 17130.000
1064.674, 17340.000
1065.917, 17310.000
1067.160, 17170.000
1068.403, 17550.000
1069.645, 17610.000
1070.888, 17350.000
1072.130, 17700.000
1073.372, 17660.000
1074.614, 17650.000
1075.855, 17947.414
1077.097, 18350.000
1078.338, 18320.000
1079.579, 18580.000
1080.820, 18620.000
1082.061, 18540.000
1083.302, 18770.000
1084.542, 18870.000
1085.782, 18580.000
1087.022, 18680.000
1088.262, 18490.000
1089.502, 18310.000
1090.741, 18270.000
1091.980, 18370.000
1093.219, 18080.000
1094.458, 18210.000
1095.697, 18020.000
1096.936, 18070.000
1098.174, 18130.000
1099.412, 18140.000
1100.650, 18110.000
1101.888, 18460.000
1103.126, 18230.000
1104.363, 18310.000
1105.600, 18100.000
1106.837, 18460.000
1108.074, 18430.000
1109.311, 18580.000
1110.547, 18700.000
1111.784, 18600.000
1113.020, 18850.000
1114.256, 19010.000
1115.492, 18990.000
1116.727, 19150.000
1117.963, 19350.000
1119.198, 19430.000
1120.433, 19730.000
1121.668, 19950.000
1122.903, 19970.000
1124.137, 20260.000
1125.371, 20580.000
1126.606, 20870.000
1127.840, 21680.000
1129.073, 21430.000
1130.307, 22470.000
1131.540, 22290.000
1132.774, 22350.000
1134.007, 22600.000
1135.239, 21950.000
1136.472, 21580.000
1137.705, 21370.000
1138.937, 20340.000
1140.169, 20230.000
1141.401, 19730.000
1142.633, 19310.000
1143.864, 19130.000
1145.096, 18790.000
1146.327, 18760.000
1147.558, 18730.000
1148.789, 18630.000
1150.020, 18270.000
1151.250, 18460.000
1152.480, 18160.000
1153.711, 18480.000
1154.941, 18240.000
1156.170, 18220.000
1157.400, 18250.000
1158.629, 18110.000
1159.859, 18440.000
1161.088, 18240.000
1162.317, 18190.000
1163.545, 18670.000
1164.774, 18590.000
1166.002, 18590.000
1167.230, 18760.000
1168.458, 18660.000
1169.686, 18770.000
1170.913, 19000.000
1172.141, 18630.000
1173.368, 18790.000
1174.595, 18920.000
1175.822, 18890.000
1177.049, 19160.000
1178.275, 18710.000
1179.502, 18750.000
1180.728, 18540.000
1181.954, 18760.000
1183.179, 18590.000
1184.405, 18440.000
1185.631, 18380.000
1186.856, 18320.000
1188.081, 18230.000
1189.306, 18400.000
1190.530, 18300.000
1191.755, 18190.000
1192.979, 18440.000
1194.203, 18130.000
1195.427, 18210.000
1196.651, 18390.000
1197.875, 18310.000
1199.098, 18390.000
1200.322, 18290.000
1201.545, 18310.000
1202.768, 18430.000
1203.990, 18540.000
1205.213, 18460.000
1206.435, 18250.000
1207.657, 18420.000
1208.879, 18390.000
1210.101, 18580.000
1211.323, 18380.000
1212.544, 18540.000
1213.766, 18620.000
1214.987, 18500.000
1216.208, 18730.000
1217.428, 18410.000
1218.649, 18720.000
1219.869, 18790.000
1221.089, 18540.000
1222.309, 18750.000
1223.529, 18590.000
1224.749, 18630.000
1225.968, 18720.000
1227.188, 18570.000
1228.407, 18900.000
1229.626, 18840.000
1230.845, 18650.000
1232.063, 18880.000
1233.282, 18740.000
1234.500, 18810.000
1235.718, 18680.000
1236.936, 18880.000
1238.153, 18760.000
1239.371, 19030.000
1240.588, 18890.000
1241.805, 18980.000
1243.022, 19000.000
1244.239, 18690.000
1245.456, 19380.000
1246.672, 18820.000
1247.889, 18930.000
1249.105, 19090.000
1250.321, 18930.000
1251.536, 19050.000
1252.752, 19150.000
1253.967, 18950.000
1255.182, 19050.000
1256.397, 19280.000
1257.612, 19150.000
1258.827, 19350.000
1260.041, 18990.000
1261.256, 19190.000
1262.470, 19170.000
1263.684, 19170.000
1264.897, 19370.000
1266.111, 19240.000
1267.324, 19510.000
1268.538, 19480.000
1269.751, 19320.000
1270.964, 19340.000
1272.176, 19490.000
1273.389, 19390.000
1274.601, 19430.000
1275.813, 19430.000
1277.025, 19260.000
1278.237, 19650.000
1279.449, 19500.000
1280.660, 19380.000
1281.871, 19700.000
1283.083, 19350.000
1284.293, 19800.000
1285.504, 19500.000
1286.715, 19590.000
1287.925, 19860.000
1289.135, 19510.000
1290.345, 19610.000
1291.555, 19730.000
1292.765, 19680.000
1293.974, 19710.000
1295.184, 19820.000
1296.393, 19660.000
1297.602, 19920.000
1298.811, 19860.000
1300.019, 19760.000
1301.228, 19880.000
1302.436, 19680.000
1303.644, 19930.000
1304.852, 19720.000
1306.060, 19670.000
1307.267, 19920.000
1308.475, 20130.000
1309.682, 19790.000
1310.889, 20140.000
1312.096, 19810.000
1313.302, 19940.000
1314.509, 19890.000
1315.715, 19890.000
1316.921, 19990.000
1318.127, 20011.695
1319.333, 19860.000
1320.539, 20150.000
1321.744, 20100.000
1322.949, 20120.000
1324.154, 20280.000
1325.359, 19970.000
1326.564, 20350.000
1327.769, 20110.000
1328.973, 20180.000
1330.177, 20210.000
1331.381, 20410.000
1332.585, 20230.000
1333.789, 20580.000
1334.992, 20520.000
1336.196, 20500.000
1337.399, 20530.000
1338.602, 20370.000
1339.804, 20540.000
1341.007, 20940.000
1342.210, 20380.000
1343.412, 20930.000
1344.614, 20800.000
1345.816, 20580.000
1347.018, 21130.000
1348.219, 20740.000
1349.420, 20770.000
1350.622, 21120.000
1351.823, 20830.000
1353.024, 21030.000
1354.224, 20940.000
1355.425, 20840.000
1356.625, 21070.000
1357.825, 20940.000
1359.025, 21120.000
1360.225, 21250.000
1361.425, 21050.000
1362.624, 21090.000
1363.823, 21480.000
1365.023, 21080.000
1366.222, 21360.000
1367.420, 21190.000
1368.619, 21280.000
1369.817, 21590.000
1371.016, 21280.000
1372.214, 21490.000
1373.411, 21680.000
1374.609, 21320.000
1375.807, 21470.000
1377.004, 21640.000
1378.201, 21590.000
1379.398, 21660.000
1380.595, 21600.000
1381.792, 21620.000
1382.988, 21830.000
1384.185, 21690.000
1385.381, 21710.000
1386.577, 21860.000
1387.773, 21790.000
1388.968, 21840.000
1390.164, 21870.000
1391.359, 21820.000
1392.554, 21980.000
1393.749, 22000.000
1394.944, 21790.000
1396.138, 21870.000
1397.333, 21940.000
1398.527, 22120.000
1399.721, 21950.000
1400.915, 22080.000
1402.108, 22070.000
1403.302, 22070.000
1404.495, 21860.000
1405.689, 22080.000
1406.882, 22260.000
1408.074, 21950.000
1409.267, 22310.000
1410.460, 22010.000
1411.652, 22340.000
1412.844, 22390.000
1414.036, 22170.000
1415.228, 22440.000
1416.419, 22550.000
1417.611, 22140.000
1418.802, 22540.000
1419.993, 22360.000
1421.184, 22330.000
1422.375, 22510.000
1423.565, 22430.000
1424.756, 22429.195
1425.946, 23010.000
1427.136, 22350.000
1428.326, 22720.000
1429.516, 22760.000
1430.705, 22560.000
1431.895, 22760.000
1433.084, 22640.000
1434.273, 22640.000
1435.462, 22950.000
1436.650, 22670.000
1437.839, 22780.000
1439.027, 23090.000
1440.216, 22630.000
1441.404, 23390.000
1442.591, 23090.000
1443.779, 22670.000
1444.966, 23100.000
1446.154, 23180.000
1447.341, 22900.000
1448.528, 23430.000
1449.715, 22800.000
1450.901, 23190.000
1452.088, 23050.000
1453.274, 23200.000
1454.460, 23280.000
1455.646, 23530.000
1456.832, 22970.000
1458.017, 23530.000
1459.203, 23580.000
1460.388, 23240.000
1461.573, 23560.000
1462.758, 23430.000
1463.943, 23500.000
1465.127, 23730.000
1466.312, 23610.000
1467.496, 23600.000
1468.680, 23900.000
1469.864, 23650.000
1471.047, 23780.000
1472.231, 23770.000
1473.414, 23890.000
1474.597, 24060.000
1475.780, 23750.000
1476.963, 24110.000
1478.146, 24100.000
1479.328, 23880.000
1480.511, 24080.000
1481.693, 24310.000
1482.875, 23870.000
1484.057, 24060.000
1485.238, 24430.000
1486.420, 23920.000
1487.601, 24390.000
1488.782, 24100.000
1489.963, 24090.000
1491.144, 24420.000
1492.324, 24120.000
1493.505, 24190.000
1494.685, 24620.000
1495.865, 24150.000
1497.045, 24470.000
1498.225, 24360.000
1499.404, 24440.000
1500.584, 24410.000
1501.763, 24790.000
1502.942, 24240.000
1504.121, 24750.000
1505.300, 24490.000
1506.478, 24720.000
1507.657, 24820.000
1508.835, 24480.000
1510.013, 24560.000
1511.191, 24850.000
1512.369, 24440.000
1513.546, 24720.000
1514.724, 25000.000
1515.901, 24350.000
1517.078, 25110.000
1518.255, 24850.000
1519.431, 24920.000
1520.608, 25040.000
1521.784, 24900.000
1522.960, 25020.000
1524.136, 25290.000
1525.312, 24810.000
1526.488, 25210.000
1527.663, 25090.000
1528.839, 25060.000
##END=



