##NAMES=Prehnite
##RRUFFID=R040047
##IDEAL CHEMISTRY=Ca_2_Al(Si_3_Al)O_10_(OH)_2_
##LOCALITY=Mohave County, Arizona, USA
##OWNER=RRUFF
##SOURCE=University of Arizona Mineral Museum
##DESCRIPTION=Green coarsely crystalline massive
##STATUS=The identification of this mineral has been confirmed by X-ray diffraction and chemical analysis
##URL=rruff.info/R040047
##MEASURED CHEMISTRY=Light bands: Ca_2.01_(Al_1.61_Fe_0.43_)Si_3.08_O_10_(OH)_2_; Dark bands: Ca_1.99_(Al_1.82_Fe_0.19_)Si_3.04_O_10_(OH)_2_
159.500, 1245.844
160.000, 1260.951
160.500, 1242.275
161.000, 1257.092
161.500, 1258.539
162.000, 1266.105
162.500, 1260.421
163.000, 1258.829
163.500, 1270.492
164.000, 1274.816
164.500, 1267.606
165.000, 1275.561
165.500, 1256.422
166.000, 1261.059
166.500, 1275.953
167.000, 1269.410
167.500, 1277.607
168.000, 1280.190
168.500, 1257.261
169.000, 1278.700
169.500, 1280.952
170.000, 1263.501
170.500, 1270.431
171.000, 1280.235
171.500, 1271.832
172.000, 1274.694
172.500, 1280.696
173.000, 1286.699
173.500, 1287.569
174.000, 1282.167
174.500, 1275.346
175.000, 1270.369
175.500, 1281.773
176.000, 1296.993
176.500, 1316.801
177.000, 1325.736
177.500, 1335.993
178.000, 1358.889
178.500, 1400.209
179.000, 1405.011
179.500, 1425.087
180.000, 1454.594
180.500, 1520.700
181.000, 1565.522
181.500, 1585.954
182.000, 1631.932
182.500, 1680.400
183.000, 1705.040
183.500, 1743.953
184.000, 1798.707
184.500, 1843.647
185.000, 1890.331
185.500, 1960.125
186.000, 2025.206
186.500, 2085.302
187.000, 2164.747
187.500, 2244.705
188.000, 2305.359
188.500, 2371.222
189.000, 2442.337
189.500, 2505.810
190.000, 2565.899
190.500, 2617.042
191.000, 2676.195
191.500, 2742.982
192.000, 2791.869
192.500, 2832.284
193.000, 2849.754
193.500, 2890.723
194.000, 2952.695
194.500, 3017.342
195.000, 3080.541
195.500, 3136.565
196.000, 3160.029
196.500, 3156.419
197.000, 3151.207
197.500, 3148.754
198.000, 3156.585
198.500, 3118.550
199.000, 3045.056
199.500, 2955.225
200.000, 2871.284
200.500, 2810.970
201.000, 2734.460
201.500, 2646.509
202.000, 2559.672
202.500, 2476.267
203.000, 2402.081
203.500, 2341.096
204.000, 2288.623
204.500, 2234.539
205.000, 2179.624
205.500, 2145.267
206.000, 2095.139
206.500, 2084.282
207.000, 2058.740
207.500, 2038.332
208.000, 2029.888
208.500, 2046.867
209.000, 2077.085
209.500, 2119.304
210.000, 2151.772
210.500, 2206.278
211.000, 2234.624
211.500, 2329.043
212.000, 2430.492
212.500, 2516.783
213.000, 2577.700
213.500, 2700.929
214.000, 2841.920
214.500, 2873.925
215.000, 2893.244
215.500, 2893.848
216.000, 2845.217
216.500, 2787.556
217.000, 2804.464
217.500, 2779.467
218.000, 2700.266
218.500, 2608.860
219.000, 2513.583
219.500, 2415.034
220.000, 2318.252
220.500, 2223.444
221.000, 2141.331
221.500, 2062.228
222.000, 1983.889
222.500, 1912.990
223.000, 1849.299
223.500, 1788.884
224.000, 1731.931
224.500, 1686.587
225.000, 1650.815
225.500, 1623.003
226.000, 1593.035
226.500, 1568.993
227.000, 1564.761
227.500, 1551.334
228.000, 1531.358
228.500, 1513.095
229.000, 1496.634
229.500, 1484.528
230.000, 1467.116
230.500, 1464.707
231.000, 1453.665
231.500, 1461.144
232.000, 1467.803
232.500, 1466.350
233.000, 1460.826
233.500, 1451.140
234.000, 1440.569
234.500, 1428.463
235.000, 1421.975
235.500, 1418.451
236.000, 1425.724
236.500, 1428.504
237.000, 1424.872
237.500, 1426.303
238.000, 1427.267
238.500, 1426.943
239.000, 1432.071
239.500, 1432.200
240.000, 1441.891
240.500, 1452.364
241.000, 1457.251
241.500, 1481.873
242.000, 1460.055
242.500, 1454.915
243.000, 1456.945
243.500, 1475.733
244.000, 1475.845
244.500, 1461.282
245.000, 1430.153
245.500, 1411.246
246.000, 1431.271
246.500, 1430.441
247.000, 1416.502
247.500, 1386.168
248.000, 1362.699
248.500, 1355.417
249.000, 1358.675
249.500, 1366.891
250.000, 1361.430
250.500, 1360.709
251.000, 1367.990
251.500, 1371.318
252.000, 1371.938
252.500, 1357.965
253.000, 1350.783
253.500, 1352.603
254.000, 1362.977
254.500, 1374.248
255.000, 1376.068
255.500, 1379.965
256.000, 1386.040
256.500, 1407.461
257.000, 1427.119
257.500, 1427.727
258.000, 1427.666
258.500, 1427.058
259.000, 1437.435
259.500, 1445.530
260.000, 1443.707
260.500, 1459.752
261.000, 1487.125
261.500, 1490.352
262.000, 1504.928
262.500, 1545.072
263.000, 1562.531
263.500, 1569.564
264.000, 1587.204
264.500, 1608.148
265.000, 1634.305
265.500, 1657.745
266.000, 1682.500
266.500, 1727.513
267.000, 1767.810
267.500, 1802.482
268.000, 1852.466
268.500, 1904.052
269.000, 1946.022
269.500, 1980.041
270.000, 2006.838
270.500, 2040.044
271.000, 2077.159
271.500, 2124.054
272.000, 2201.368
272.500, 2299.303
273.000, 2349.803
273.500, 2398.481
274.000, 2448.421
274.500, 2473.950
275.000, 2487.364
275.500, 2501.371
276.000, 2510.702
276.500, 2512.529
277.000, 2513.000
277.500, 2513.061
278.000, 2513.671
278.500, 2519.204
279.000, 2530.516
279.500, 2543.261
280.000, 2556.385
280.500, 2569.783
281.000, 2587.766
281.500, 2609.717
282.000, 2627.901
282.500, 2656.854
283.000, 2679.705
283.500, 2695.032
284.000, 2727.219
284.500, 2729.976
285.000, 2741.425
285.500, 2728.190
286.000, 2738.107
286.500, 2682.426
287.000, 2654.343
287.500, 2626.530
288.000, 2599.091
288.500, 2577.326
289.000, 2551.548
289.500, 2491.182
290.000, 2425.896
290.500, 2355.688
291.000, 2330.213
291.500, 2297.402
292.000, 2214.374
292.500, 2153.168
293.000, 2107.382
293.500, 2048.282
294.000, 2002.079
294.500, 1986.206
295.000, 1960.051
295.500, 1928.725
296.000, 1893.315
296.500, 1879.785
297.000, 1899.345
297.500, 1885.857
298.000, 1865.758
298.500, 1871.870
299.000, 1865.455
299.500, 1845.895
300.000, 1843.521
300.500, 1849.413
301.000, 1844.031
301.500, 1874.719
302.000, 1856.993
302.500, 1891.197
303.000, 1915.117
303.500, 1909.005
304.000, 1937.845
304.500, 1984.394
305.000, 2047.351
305.500, 2109.110
306.000, 2169.086
306.500, 2259.314
307.000, 2353.432
307.500, 2413.064
308.000, 2532.601
308.500, 2712.533
309.000, 2897.215
309.500, 3079.972
310.000, 3253.784
310.500, 3483.029
311.000, 3749.854
311.500, 4100.286
312.000, 4408.542
312.500, 4623.616
313.000, 4845.323
313.500, 5064.435
314.000, 5200.465
314.500, 5316.947
315.000, 5407.525
315.500, 5367.958
316.000, 5267.807
316.500, 5028.842
317.000, 4828.661
317.500, 4662.603
318.000, 4470.628
318.500, 4259.687
319.000, 4004.784
319.500, 3768.587
320.000, 3543.295
320.500, 3368.667
321.000, 3211.073
321.500, 3082.239
322.000, 2957.615
322.500, 2835.720
323.000, 2724.063
323.500, 2643.621
324.000, 2596.995
324.500, 2548.854
325.000, 2508.057
325.500, 2494.561
326.000, 2477.456
326.500, 2457.824
327.000, 2444.657
327.500, 2430.567
328.000, 2414.002
328.500, 2424.864
329.000, 2443.939
329.500, 2414.491
330.000, 2400.429
330.500, 2405.951
331.000, 2373.166
331.500, 2332.747
332.000, 2298.391
332.500, 2262.994
333.000, 2226.753
333.500, 2209.243
334.000, 2187.818
334.500, 2153.419
335.000, 2113.687
335.500, 2071.501
336.000, 2034.032
336.500, 2010.988
337.000, 2008.531
337.500, 2006.555
338.000, 2001.162
338.500, 1992.804
339.000, 1966.953
339.500, 1970.639
340.000, 1952.694
340.500, 1937.491
341.000, 1935.649
341.500, 1935.797
342.000, 1937.041
342.500, 1938.886
343.000, 1938.782
343.500, 1935.707
344.000, 1956.309
344.500, 1950.787
345.000, 1963.818
345.500, 1959.230
346.000, 1963.535
346.500, 1977.732
347.000, 1996.747
347.500, 1991.864
348.000, 2019.001
348.500, 1992.978
349.000, 1991.748
349.500, 2004.277
350.000, 2001.761
350.500, 2034.650
351.000, 2025.989
351.500, 2053.700
352.000, 2073.404
352.500, 2085.719
353.000, 2121.759
353.500, 2150.167
354.000, 2150.783
354.500, 2156.985
355.000, 2166.532
355.500, 2188.700
356.000, 2215.906
356.500, 2250.670
357.000, 2298.444
357.500, 2348.836
358.000, 2393.225
358.500, 2438.926
359.000, 2474.994
359.500, 2515.879
360.000, 2538.236
360.500, 2569.698
361.000, 2593.104
361.500, 2616.085
362.000, 2640.746
362.500, 2664.106
363.000, 2685.684
363.500, 2728.469
364.000, 2779.206
364.500, 2842.168
365.000, 2893.392
365.500, 2986.140
366.000, 3053.552
366.500, 3177.933
367.000, 3304.325
367.500, 3401.259
368.000, 3489.820
368.500, 3636.123
369.000, 3796.990
369.500, 3975.384
370.000, 4140.907
370.500, 4315.228
371.000, 4531.286
371.500, 4760.901
372.000, 4999.788
372.500, 5192.015
373.000, 5399.826
373.500, 5638.096
374.000, 5801.987
374.500, 5947.102
375.000, 6151.431
375.500, 6400.190
376.000, 6693.775
376.500, 6931.869
377.000, 7135.357
377.500, 7262.673
378.000, 7377.254
378.500, 7486.535
379.000, 7660.823
379.500, 7820.233
380.000, 7958.057
380.500, 8055.843
381.000, 8131.401
381.500, 8230.586
382.000, 8234.053
382.500, 8367.714
383.000, 8458.903
383.500, 8489.098
384.000, 8395.658
384.500, 8311.367
385.000, 8239.961
385.500, 8262.238
386.000, 8191.340
386.500, 8016.219
387.000, 7751.049
387.500, 7461.226
388.000, 7141.288
388.500, 6778.891
389.000, 6390.994
389.500, 6014.742
390.000, 5665.284
390.500, 5357.359
391.000, 5126.271
391.500, 4925.807
392.000, 4770.295
392.500, 4575.207
393.000, 4424.181
393.500, 4242.495
394.000, 4142.521
394.500, 4034.097
395.000, 3936.572
395.500, 3846.442
396.000, 3784.708
396.500, 3746.356
397.000, 3670.307
397.500, 3640.142
398.000, 3545.231
398.500, 3485.680
399.000, 3411.198
399.500, 3328.718
400.000, 3270.407
400.500, 3180.368
401.000, 3044.676
401.500, 2952.805
402.000, 2877.638
402.500, 2826.771
403.000, 2786.192
403.500, 2753.315
404.000, 2672.196
404.500, 2593.605
405.000, 2523.505
405.500, 2537.875
406.000, 2570.922
406.500, 2521.914
407.000, 2479.578
407.500, 2443.597
408.000, 2446.149
408.500, 2456.397
409.000, 2475.007
409.500, 2456.154
410.000, 2422.084
410.500, 2423.327
411.000, 2427.414
411.500, 2434.867
412.000, 2419.146
412.500, 2407.696
413.000, 2423.224
413.500, 2433.681
414.000, 2440.084
414.500, 2389.152
415.000, 2361.281
415.500, 2366.871
416.000, 2345.669
416.500, 2318.043
417.000, 2291.956
417.500, 2288.935
418.000, 2269.589
418.500, 2275.229
419.000, 2256.775
419.500, 2256.153
420.000, 2263.502
420.500, 2271.092
421.000, 2264.873
421.500, 2261.331
422.000, 2260.087
422.500, 2269.254
423.000, 2283.209
423.500, 2305.597
424.000, 2319.104
424.500, 2330.178
425.000, 2350.726
425.500, 2363.488
426.000, 2368.463
426.500, 2374.356
427.000, 2371.583
427.500, 2377.311
428.000, 2380.810
428.500, 2382.359
429.000, 2387.340
429.500, 2388.839
430.000, 2386.349
430.500, 2424.020
431.000, 2458.424
431.500, 2464.027
432.000, 2479.736
432.500, 2499.479
433.000, 2487.649
433.500, 2474.728
434.000, 2460.406
434.500, 2460.594
435.000, 2453.049
435.500, 2409.408
436.000, 2393.389
436.500, 2394.034
437.000, 2395.904
437.500, 2389.119
438.000, 2385.845
438.500, 2371.281
439.000, 2373.688
439.500, 2362.467
440.000, 2358.750
440.500, 2359.998
441.000, 2373.688
441.500, 2377.819
442.000, 2367.208
442.500, 2334.880
443.000, 2306.699
443.500, 2321.056
444.000, 2328.827
444.500, 2331.944
445.000, 2336.904
445.500, 2348.777
446.000, 2371.873
446.500, 2361.945
447.000, 2354.789
447.500, 2404.726
448.000, 2434.240
448.500, 2448.598
449.000, 2461.135
449.500, 2485.398
450.000, 2529.719
450.500, 2596.161
451.000, 2668.957
451.500, 2740.117
452.000, 2808.495
452.500, 2874.749
453.000, 3009.659
453.500, 3129.306
454.000, 3218.052
454.500, 3370.306
455.000, 3529.479
455.500, 3623.854
456.000, 3785.205
456.500, 3998.330
457.000, 4140.359
457.500, 4269.269
458.000, 4379.889
458.500, 4438.988
459.000, 4470.953
459.500, 4446.580
460.000, 4367.730
460.500, 4247.100
461.000, 4184.969
461.500, 4072.848
462.000, 3871.343
462.500, 3757.623
463.000, 3665.744
463.500, 3552.476
464.000, 3453.172
464.500, 3364.310
465.000, 3268.137
465.500, 3184.000
466.000, 3120.169
466.500, 3089.913
467.000, 3072.089
467.500, 3067.083
468.000, 3024.070
468.500, 2953.981
469.000, 2931.995
469.500, 2919.732
470.000, 2921.610
470.500, 2904.628
471.000, 2890.310
471.500, 2907.231
472.000, 2916.256
472.500, 2920.142
473.000, 2955.229
473.500, 2994.406
474.000, 3039.519
474.500, 3035.789
475.000, 3023.052
475.500, 3018.667
476.000, 3056.623
476.500, 3119.587
477.000, 3144.053
477.500, 3189.521
478.000, 3262.828
478.500, 3299.590
479.000, 3321.548
479.500, 3319.666
480.000, 3348.547
480.500, 3395.200
481.000, 3459.190
481.500, 3491.425
482.000, 3485.779
482.500, 3489.867
483.000, 3507.450
483.500, 3515.286
484.000, 3532.969
484.500, 3555.093
485.000, 3579.874
485.500, 3614.848
486.000, 3660.523
486.500, 3692.675
487.000, 3739.665
487.500, 3824.650
488.000, 3906.344
488.500, 3983.434
489.000, 4035.712
489.500, 4094.101
490.000, 4158.046
490.500, 4224.617
491.000, 4300.401
491.500, 4393.697
492.000, 4472.213
492.500, 4541.013
493.000, 4584.195
493.500, 4668.364
494.000, 4784.206
494.500, 4816.757
495.000, 4865.535
495.500, 4944.157
496.000, 5076.597
496.500, 5208.056
497.000, 5279.077
497.500, 5324.304
498.000, 5354.957
498.500, 5479.514
499.000, 5598.417
499.500, 5709.818
500.000, 5862.679
500.500, 6022.361
501.000, 6178.851
501.500, 6344.025
502.000, 6517.415
502.500, 6740.444
503.000, 6923.530
503.500, 7063.670
504.000, 7357.712
504.500, 7627.520
505.000, 7798.213
505.500, 8186.049
506.000, 8643.520
506.500, 8980.647
507.000, 9400.062
507.500, 9890.134
508.000, 10303.550
508.500, 10788.510
509.000, 11406.580
509.500, 12026.210
510.000, 12682.610
510.500, 13427.401
511.000, 14187.911
511.500, 15028.490
512.000, 15889.290
512.500, 16807.551
513.000, 17803.881
513.500, 18812.250
514.000, 19642.961
514.500, 20391.334
515.000, 20964.904
515.500, 21557.939
516.000, 21798.980
516.500, 22045.840
517.000, 22298.760
517.500, 21687.631
518.000, 21206.480
518.500, 21196.480
519.000, 20484.980
519.500, 19560.180
520.000, 18870.779
520.500, 17948.561
521.000, 16844.900
521.500, 16074.280
522.000, 15253.730
522.500, 14344.150
523.000, 13467.910
523.500, 12634.310
524.000, 11921.020
524.500, 11205.450
525.000, 10495.440
525.500, 9905.753
526.000, 9377.430
526.500, 8918.315
527.000, 8421.496
527.500, 7975.031
528.000, 7654.976
528.500, 7312.571
529.000, 6992.491
529.500, 6755.305
530.000, 6537.307
530.500, 6348.341
531.000, 6226.087
531.500, 6114.952
532.000, 6012.673
532.500, 5896.513
533.000, 5785.908
533.500, 5706.502
534.000, 5625.294
534.500, 5545.265
535.000, 5500.875
535.500, 5455.281
536.000, 5408.362
536.500, 5348.197
537.000, 5269.065
537.500, 5151.856
538.000, 5028.089
538.500, 4903.328
539.000, 4786.390
539.500, 4662.531
540.000, 4533.450
540.500, 4411.832
541.000, 4267.482
541.500, 4156.904
542.000, 4018.334
542.500, 3881.690
543.000, 3768.564
543.500, 3638.940
544.000, 3504.916
544.500, 3410.186
545.000, 3328.945
545.500, 3260.656
546.000, 3150.057
546.500, 3059.780
547.000, 3013.162
547.500, 2926.849
548.000, 2841.098
548.500, 2807.073
549.000, 2753.843
549.500, 2689.316
550.000, 2645.456
550.500, 2610.312
551.000, 2585.565
551.500, 2550.987
552.000, 2511.131
552.500, 2462.136
553.000, 2427.806
553.500, 2401.464
554.000, 2388.835
554.500, 2353.414
555.000, 2300.654
555.500, 2323.223
556.000, 2314.621
556.500, 2260.808
557.000, 2243.960
557.500, 2230.365
558.000, 2205.411
558.500, 2185.759
559.000, 2166.630
559.500, 2131.066
560.000, 2108.558
560.500, 2097.625
561.000, 2074.884
561.500, 2086.522
562.000, 2051.539
562.500, 2050.726
563.000, 2050.730
563.500, 2024.941
564.000, 2013.703
564.500, 2010.400
565.000, 2009.083
565.500, 2001.288
566.000, 1987.067
566.500, 1977.269
567.000, 1976.850
567.500, 1993.061
568.000, 1974.240
568.500, 1946.046
569.000, 1920.288
569.500, 1931.731
570.000, 1962.880
570.500, 1957.996
571.000, 1943.619
571.500, 1919.042
572.000, 1929.652
572.500, 1943.099
573.000, 1955.277
573.500, 1955.720
574.000, 1953.854
574.500, 1957.781
575.000, 1960.033
575.500, 1961.135
576.000, 1959.905
576.500, 1958.323
577.000, 1956.348
577.500, 1958.021
578.000, 1957.732
578.500, 1952.595
579.000, 1952.891
579.500, 1956.775
580.000, 1968.809
580.500, 1979.424
581.000, 1988.669
581.500, 1987.190
582.000, 1992.726
582.500, 2006.173
583.000, 2021.473
583.500, 2033.180
584.000, 2037.100
584.500, 2048.990
585.000, 2064.046
585.500, 2081.782
586.000, 2105.833
586.500, 2132.843
587.000, 2141.069
587.500, 2157.366
588.000, 2182.480
588.500, 2195.205
589.000, 2216.974
589.500, 2258.909
590.000, 2307.478
590.500, 2350.691
591.000, 2364.448
591.500, 2398.343
592.000, 2443.361
592.500, 2477.747
593.000, 2507.925
593.500, 2533.794
594.000, 2555.514
594.500, 2578.384
595.000, 2603.953
595.500, 2631.774
596.000, 2664.524
596.500, 2697.729
597.000, 2730.409
597.500, 2777.108
598.000, 2800.522
598.500, 2841.814
599.000, 2899.744
599.500, 2971.132
600.000, 3035.091
600.500, 3085.987
601.000, 3124.381
601.500, 3169.771
602.000, 3244.576
602.500, 3323.610
603.000, 3402.847
603.500, 3468.936
604.000, 3494.567
604.500, 3538.105
605.000, 3534.030
605.500, 3550.794
606.000, 3525.217
606.500, 3463.428
607.000, 3400.517
607.500, 3350.130
608.000, 3276.917
608.500, 3193.112
609.000, 3099.206
609.500, 3006.097
610.000, 2913.744
610.500, 2829.295
611.000, 2749.770
611.500, 2675.933
612.000, 2610.444
612.500, 2549.301
613.000, 2494.903
613.500, 2437.730
614.000, 2384.969
614.500, 2352.128
615.000, 2316.773
615.500, 2280.102
616.000, 2244.338
616.500, 2231.154
617.000, 2214.273
617.500, 2218.994
618.000, 2206.922
618.500, 2209.213
619.000, 2215.465
619.500, 2218.112
620.000, 2208.542
620.500, 2207.626
621.000, 2212.037
621.500, 2209.417
622.000, 2213.185
622.500, 2216.579
623.000, 2223.370
623.500, 2234.047
624.000, 2249.358
624.500, 2251.022
625.000, 2248.824
625.500, 2242.151
626.000, 2244.600
626.500, 2244.932
627.000, 2241.288
627.500, 2240.557
628.000, 2235.109
628.500, 2231.752
629.000, 2224.574
629.500, 2214.006
630.000, 2187.466
630.500, 2170.148
631.000, 2166.807
631.500, 2148.221
632.000, 2135.921
632.500, 2145.599
633.000, 2112.608
633.500, 2074.366
634.000, 2086.801
634.500, 2079.008
635.000, 2060.052
635.500, 2070.178
636.000, 2054.869
636.500, 2013.508
637.000, 2013.164
637.500, 2007.804
638.000, 1989.574
638.500, 2022.323
639.000, 2040.448
639.500, 1985.853
640.000, 1958.873
640.500, 1940.753
641.000, 1906.536
641.500, 1878.273
642.000, 1854.870
642.500, 1831.426
643.000, 1817.890
643.500, 1800.796
644.000, 1800.549
644.500, 1802.825
645.000, 1803.870
645.500, 1795.877
646.000, 1784.807
646.500, 1771.141
647.000, 1774.095
647.500, 1781.292
648.000, 1767.635
648.500, 1760.470
649.000, 1757.864
649.500, 1747.274
650.000, 1748.478
650.500, 1763.195
651.000, 1772.901
651.500, 1776.482
652.000, 1769.859
652.500, 1763.384
653.000, 1759.454
653.500, 1763.215
654.000, 1780.240
654.500, 1797.930
655.000, 1782.328
655.500, 1795.475
656.000, 1828.073
656.500, 1819.123
657.000, 1818.481
657.500, 1827.061
658.000, 1834.591
658.500, 1852.149
659.000, 1887.087
659.500, 1906.158
660.000, 1917.093
660.500, 1937.794
661.000, 1934.650
661.500, 1957.672
662.000, 1951.885
662.500, 1948.846
663.000, 1948.099
663.500, 1949.307
664.000, 1951.387
664.500, 1957.859
665.000, 1962.216
665.500, 1969.849
666.000, 1981.953
666.500, 1990.377
667.000, 1987.707
667.500, 2012.712
668.000, 2030.215
668.500, 2041.468
669.000, 2037.015
669.500, 2044.179
670.000, 2058.483
670.500, 2077.535
671.000, 2081.210
671.500, 2095.810
672.000, 2098.095
672.500, 2120.026
673.000, 2134.910
673.500, 2156.771
674.000, 2166.219
674.500, 2180.090
675.000, 2195.902
675.500, 2194.776
676.000, 2214.755
676.500, 2208.975
677.000, 2196.640
677.500, 2219.555
678.000, 2227.947
678.500, 2226.511
679.000, 2239.780
679.500, 2252.330
680.000, 2264.124
680.500, 2267.677
681.000, 2259.697
681.500, 2255.822
682.000, 2244.681
682.500, 2226.299
683.000, 2214.430
683.500, 2187.113
684.000, 2165.468
684.500, 2144.269
685.000, 2153.909
685.500, 2093.685
686.000, 2090.289
686.500, 2058.911
687.000, 2005.203
687.500, 1976.253
688.000, 1949.363
688.500, 1924.886
689.000, 1899.187
689.500, 1870.230
690.000, 1835.828
690.500, 1806.724
691.000, 1782.827
691.500, 1769.641
692.000, 1769.090
692.500, 1765.625
693.000, 1727.855
693.500, 1704.892
694.000, 1692.858
694.500, 1705.017
695.000, 1697.058
695.500, 1672.369
696.000, 1664.860
696.500, 1649.524
697.000, 1624.849
697.500, 1606.052
698.000, 1597.772
698.500, 1606.710
699.000, 1611.702
699.500, 1610.868
700.000, 1597.123
700.500, 1582.869
701.000, 1573.943
701.500, 1571.890
702.000, 1584.831
702.500, 1574.124
703.000, 1589.547
703.500, 1591.107
704.000, 1581.676
704.500, 1571.646
705.000, 1561.993
705.500, 1552.766
706.000, 1548.531
706.500, 1545.753
707.000, 1545.836
707.500, 1549.676
708.000, 1557.151
708.500, 1568.027
709.000, 1550.907
709.500, 1527.935
710.000, 1515.680
710.500, 1523.061
711.000, 1538.928
711.500, 1548.840
712.000, 1555.447
712.500, 1559.549
713.000, 1559.138
713.500, 1559.758
714.000, 1561.369
714.500, 1558.957
715.000, 1557.908
715.500, 1554.234
716.000, 1552.008
716.500, 1548.455
717.000, 1549.853
717.500, 1552.046
718.000, 1556.284
718.500, 1563.227
719.000, 1572.731
719.500, 1584.245
720.000, 1600.307
720.500, 1599.824
721.000, 1590.355
721.500, 1580.886
722.000, 1571.416
722.500, 1561.947
723.000, 1552.478
723.500, 1555.659
724.000, 1597.193
724.500, 1609.543
725.000, 1611.320
725.500, 1635.769
726.000, 1629.065
726.500, 1597.278
727.000, 1623.849
727.500, 1633.806
728.000, 1620.765
728.500, 1646.594
729.000, 1665.362
729.500, 1653.377
730.000, 1666.305
730.500, 1685.936
731.000, 1695.402
731.500, 1692.723
732.000, 1683.260
732.500, 1691.117
733.000, 1706.563
733.500, 1729.972
734.000, 1755.367
734.500, 1759.433
735.000, 1725.956
735.500, 1729.590
736.000, 1749.682
736.500, 1792.991
737.000, 1794.931
737.500, 1781.512
738.000, 1796.897
738.500, 1797.848
739.000, 1787.459
739.500, 1808.212
740.000, 1835.818
740.500, 1872.146
741.000, 1873.505
741.500, 1873.364
742.000, 1880.166
742.500, 1884.097
743.000, 1892.782
743.500, 1923.779
744.000, 1922.571
744.500, 1907.035
745.000, 1928.324
745.500, 1959.530
746.000, 1999.667
746.500, 2012.739
747.000, 2025.138
747.500, 2037.854
748.000, 2050.644
748.500, 2061.860
749.000, 2072.234
749.500, 2080.372
750.000, 2082.485
750.500, 2082.835
751.000, 2076.131
751.500, 2064.812
752.000, 2048.476
752.500, 2048.950
753.000, 2065.452
753.500, 2044.897
754.000, 2025.655
754.500, 2010.933
755.000, 1989.936
755.500, 1981.636
756.000, 1954.261
756.500, 1954.101
757.000, 1943.310
757.500, 1905.930
758.000, 1889.405
758.500, 1884.315
759.000, 1864.182
759.500, 1862.952
760.000, 1879.453
760.500, 1871.570
761.000, 1880.110
761.500, 1882.398
762.000, 1888.830
762.500, 1899.911
763.000, 1904.580
763.500, 1921.250
764.000, 1930.477
764.500, 1956.531
765.000, 1961.781
765.500, 1983.121
766.000, 2014.736
766.500, 2027.281
767.000, 2023.315
767.500, 2054.442
768.000, 2068.555
768.500, 2059.732
769.000, 2087.088
769.500, 2117.693
770.000, 2145.070
770.500, 2153.050
771.000, 2161.354
771.500, 2189.268
772.000, 2217.917
772.500, 2243.938
773.000, 2249.695
773.500, 2263.260
774.000, 2281.668
774.500, 2292.760
775.000, 2306.293
775.500, 2321.343
776.000, 2330.978
776.500, 2341.021
777.000, 2355.443
777.500, 2340.248
778.000, 2314.125
778.500, 2275.519
779.000, 2286.428
779.500, 2306.500
780.000, 2286.833
780.500, 2252.367
781.000, 2212.524
781.500, 2204.761
782.000, 2180.929
782.500, 2143.405
783.000, 2116.581
783.500, 2082.376
784.000, 2038.904
784.500, 2008.511
785.000, 1980.751
785.500, 1955.100
786.000, 1931.346
786.500, 1913.412
787.000, 1893.685
787.500, 1877.253
788.000, 1861.442
788.500, 1847.149
789.000, 1832.531
789.500, 1817.137
790.000, 1794.737
790.500, 1782.959
791.000, 1780.602
791.500, 1751.536
792.000, 1744.512
792.500, 1766.025
793.000, 1759.346
793.500, 1755.314
794.000, 1762.180
794.500, 1756.771
795.000, 1748.589
795.500, 1740.807
796.000, 1724.822
796.500, 1709.370
797.000, 1711.356
797.500, 1722.972
798.000, 1736.677
798.500, 1715.304
799.000, 1706.731
799.500, 1708.714
800.000, 1710.156
800.500, 1697.483
801.000, 1668.506
801.500, 1665.071
802.000, 1665.449
802.500, 1668.521
803.000, 1666.130
803.500, 1663.327
804.000, 1662.052
804.500, 1666.938
805.000, 1672.069
805.500, 1670.795
806.000, 1670.986
806.500, 1671.961
807.000, 1673.412
807.500, 1673.277
808.000, 1672.050
808.500, 1670.713
809.000, 1667.172
809.500, 1661.547
810.000, 1654.861
810.500, 1651.729
811.000, 1653.269
811.500, 1647.817
812.000, 1645.073
812.500, 1648.699
813.000, 1656.780
813.500, 1660.818
814.000, 1651.918
814.500, 1642.613
815.000, 1640.166
815.500, 1665.033
816.000, 1672.125
816.500, 1669.606
817.000, 1662.340
817.500, 1660.858
818.000, 1664.074
818.500, 1679.137
819.000, 1678.452
819.500, 1662.996
820.000, 1672.123
820.500, 1658.992
821.000, 1663.653
821.500, 1642.077
822.000, 1660.334
822.500, 1656.330
823.000, 1629.528
823.500, 1606.766
824.000, 1603.852
824.500, 1620.960
825.000, 1632.582
825.500, 1605.127
826.000, 1601.144
826.500, 1605.937
827.000, 1602.474
827.500, 1611.658
828.000, 1623.877
828.500, 1591.474
829.000, 1581.921
829.500, 1589.920
830.000, 1575.536
830.500, 1575.877
831.000, 1591.547
831.500, 1598.303
832.000, 1602.122
832.500, 1602.482
833.000, 1593.100
833.500, 1586.839
834.000, 1588.292
834.500, 1587.050
835.000, 1581.855
835.500, 1585.039
836.000, 1585.715
836.500, 1588.398
837.000, 1591.491
837.500, 1594.587
838.000, 1596.124
838.500, 1589.922
839.000, 1583.715
839.500, 1577.100
840.000, 1567.057
840.500, 1561.433
841.000, 1558.990
841.500, 1555.059
842.000, 1558.072
842.500, 1554.481
843.000, 1559.529
843.500, 1555.618
844.000, 1557.073
844.500, 1566.640
845.000, 1571.651
845.500, 1568.722
846.000, 1549.165
846.500, 1534.109
847.000, 1532.826
847.500, 1547.972
848.000, 1561.716
848.500, 1562.077
849.000, 1582.693
849.500, 1596.288
850.000, 1563.207
850.500, 1541.224
851.000, 1531.321
851.500, 1556.932
852.000, 1571.224
852.500, 1575.379
853.000, 1549.940
853.500, 1545.222
854.000, 1554.768
854.500, 1562.266
855.000, 1566.822
855.500, 1568.671
856.000, 1554.761
856.500, 1561.575
857.000, 1555.572
857.500, 1562.027
858.000, 1550.135
858.500, 1563.123
859.000, 1561.158
859.500, 1555.367
860.000, 1545.834
860.500, 1537.718
861.000, 1546.891
861.500, 1548.359
862.000, 1579.110
862.500, 1564.031
863.000, 1570.989
863.500, 1571.262
864.000, 1567.854
864.500, 1559.423
865.000, 1579.639
865.500, 1605.379
866.000, 1605.742
866.500, 1585.913
867.000, 1563.488
867.500, 1585.316
868.000, 1592.423
868.500, 1590.860
869.000, 1591.774
869.500, 1595.747
870.000, 1601.731
870.500, 1603.955
871.000, 1602.541
871.500, 1598.149
872.000, 1610.086
872.500, 1612.810
873.000, 1606.018
873.500, 1605.098
874.000, 1606.589
874.500, 1610.805
875.000, 1611.581
875.500, 1614.639
876.000, 1616.679
876.500, 1620.164
877.000, 1623.015
877.500, 1626.728
878.000, 1634.771
878.500, 1639.164
879.000, 1634.568
879.500, 1634.883
880.000, 1632.029
880.500, 1618.598
881.000, 1631.153
881.500, 1638.208
882.000, 1606.570
882.500, 1623.224
883.000, 1645.530
883.500, 1625.452
884.000, 1637.064
884.500, 1653.323
885.000, 1629.409
885.500, 1629.308
886.000, 1640.295
886.500, 1645.634
887.000, 1661.745
887.500, 1678.862
888.000, 1653.811
888.500, 1660.045
889.000, 1683.243
889.500, 1657.638
890.000, 1668.182
890.500, 1704.633
891.000, 1700.578
891.500, 1692.114
892.000, 1680.230
892.500, 1696.640
893.000, 1699.450
893.500, 1688.765
894.000, 1723.890
894.500, 1730.954
895.000, 1705.903
895.500, 1734.244
896.000, 1758.681
896.500, 1775.093
897.000, 1760.698
897.500, 1749.409
898.000, 1745.903
898.500, 1760.323
899.000, 1781.019
899.500, 1808.532
900.000, 1814.736
900.500, 1820.463
901.000, 1830.802
901.500, 1852.390
902.000, 1875.448
902.500, 1897.421
903.000, 1913.405
903.500, 1934.672
904.000, 1950.954
904.500, 1980.335
905.000, 1987.116
905.500, 2002.997
906.000, 2028.769
906.500, 2059.757
907.000, 2097.239
907.500, 2095.552
908.000, 2089.927
908.500, 2112.454
909.000, 2133.383
909.500, 2147.498
910.000, 2170.177
910.500, 2187.156
911.000, 2206.089
911.500, 2220.879
912.000, 2230.312
912.500, 2240.538
913.000, 2265.346
913.500, 2261.058
914.000, 2254.708
914.500, 2311.180
915.000, 2365.792
915.500, 2410.941
916.000, 2405.755
916.500, 2424.945
917.000, 2461.146
917.500, 2518.174
918.000, 2565.554
918.500, 2607.730
919.000, 2655.463
919.500, 2690.958
920.000, 2754.555
920.500, 2802.750
921.000, 2884.681
921.500, 2967.827
922.000, 3043.742
922.500, 3134.132
923.000, 3236.604
923.500, 3358.226
924.000, 3465.114
924.500, 3563.014
925.000, 3700.210
925.500, 3867.186
926.000, 4056.814
926.500, 4214.808
927.000, 4328.358
927.500, 4406.181
928.000, 4532.252
928.500, 4646.608
929.000, 4750.585
929.500, 4855.346
930.000, 5003.165
930.500, 5085.576
931.000, 5242.446
931.500, 5302.854
932.000, 5369.909
932.500, 5531.213
933.000, 5633.368
933.500, 5677.674
934.000, 5689.756
934.500, 5690.414
935.000, 5679.645
935.500, 5821.051
936.000, 5910.990
936.500, 5947.557
937.000, 5904.120
937.500, 5880.018
938.000, 5877.042
938.500, 5801.478
939.000, 5763.711
939.500, 5767.328
940.000, 5797.469
940.500, 5783.673
941.000, 5722.141
941.500, 5685.156
942.000, 5644.410
942.500, 5599.050
943.000, 5561.824
943.500, 5524.322
944.000, 5486.333
944.500, 5453.474
945.000, 5408.257
945.500, 5349.438
946.000, 5310.995
946.500, 5266.032
947.000, 5217.856
947.500, 5180.392
948.000, 5135.329
948.500, 5080.897
949.000, 5015.052
949.500, 4961.809
950.000, 4881.216
950.500, 4784.863
951.000, 4724.192
951.500, 4632.380
952.000, 4566.239
952.500, 4452.480
953.000, 4412.595
953.500, 4328.416
954.000, 4232.799
954.500, 4125.800
955.000, 4006.422
955.500, 3930.207
956.000, 3897.590
956.500, 3821.252
957.000, 3716.974
957.500, 3585.867
958.000, 3536.965
958.500, 3490.645
959.000, 3446.423
959.500, 3380.164
960.000, 3344.773
960.500, 3335.194
961.000, 3217.441
961.500, 3139.249
962.000, 3097.118
962.500, 3073.974
963.000, 3054.734
963.500, 3037.320
964.000, 2986.665
964.500, 2951.439
965.000, 2931.621
965.500, 2958.905
966.000, 2949.323
966.500, 2910.707
967.000, 2867.910
967.500, 2865.016
968.000, 2892.104
968.500, 2923.359
969.000, 2937.773
969.500, 2941.446
970.000, 2955.295
970.500, 2982.633
971.000, 3017.551
971.500, 3041.408
972.000, 3081.982
972.500, 3129.874
973.000, 3155.766
973.500, 3195.489
974.000, 3242.855
974.500, 3287.711
975.000, 3347.444
975.500, 3411.822
976.000, 3458.297
976.500, 3523.865
977.000, 3598.958
977.500, 3674.271
978.000, 3753.056
978.500, 3827.757
979.000, 3910.805
979.500, 3954.158
980.000, 4014.164
980.500, 4093.078
981.000, 4162.027
981.500, 4256.403
982.000, 4329.862
982.500, 4434.059
983.000, 4525.322
983.500, 4549.305
984.000, 4635.573
984.500, 4731.365
985.000, 4803.229
985.500, 4819.366
986.000, 4796.234
986.500, 4716.663
987.000, 4724.836
987.500, 4728.793
988.000, 4683.574
988.500, 4681.855
989.000, 4674.137
989.500, 4640.133
990.000, 4589.601
990.500, 4475.665
991.000, 4445.606
991.500, 4346.159
992.000, 4252.986
992.500, 4181.310
993.000, 4088.313
993.500, 3970.201
994.000, 3821.568
994.500, 3814.197
995.000, 3747.381
995.500, 3602.344
996.000, 3532.647
996.500, 3465.318
997.000, 3398.305
997.500, 3294.262
998.000, 3195.572
998.500, 3102.377
999.000, 3024.298
999.500, 2953.385
1000.000, 2890.703
1000.500, 2861.160
1001.000, 2805.249
1001.500, 2736.145
1002.000, 2717.331
1002.500, 2655.676
1003.000, 2575.421
1003.500, 2547.577
1004.000, 2531.097
1004.500, 2512.376
1005.000, 2452.283
1005.500, 2425.922
1006.000, 2420.946
1006.500, 2395.458
1007.000, 2393.232
1007.500, 2391.621
1008.000, 2391.999
1008.500, 2389.349
1009.000, 2388.904
1009.500, 2389.023
1010.000, 2389.295
1010.500, 2396.495
1011.000, 2402.533
1011.500, 2402.029
1012.000, 2408.122
1012.500, 2428.786
1013.000, 2440.175
1013.500, 2447.085
1014.000, 2449.162
1014.500, 2489.868
1015.000, 2505.676
1015.500, 2483.416
1016.000, 2443.893
1016.500, 2427.540
1017.000, 2438.104
1017.500, 2476.795
1018.000, 2480.780
1018.500, 2452.419
1019.000, 2443.732
1019.500, 2440.400
1020.000, 2439.402
1020.500, 2415.410
1021.000, 2386.323
1021.500, 2357.838
1022.000, 2358.218
1022.500, 2361.883
1023.000, 2358.040
1023.500, 2307.346
1024.000, 2308.701
1024.500, 2315.901
1025.000, 2257.818
1025.500, 2259.456
1026.000, 2267.577
1026.500, 2232.772
1027.000, 2233.913
1027.500, 2239.519
1028.000, 2232.522
1028.500, 2201.499
1029.000, 2175.204
1029.500, 2166.504
1030.000, 2153.802
1030.500, 2138.926
1031.000, 2121.658
1031.500, 2108.161
1032.000, 2097.777
1032.500, 2090.780
1033.000, 2099.335
1033.500, 2101.367
1034.000, 2096.890
1034.500, 2100.680
1035.000, 2098.152
1035.500, 2090.623
1036.000, 2083.618
1036.500, 2082.088
1037.000, 2063.237
1037.500, 2077.258
1038.000, 2076.604
1038.500, 2073.593
1039.000, 2092.757
1039.500, 2083.802
1040.000, 2070.779
1040.500, 2079.698
1041.000, 2091.690
1041.500, 2097.592
1042.000, 2098.416
1042.500, 2090.397
1043.000, 2092.621
1043.500, 2087.880
1044.000, 2080.122
1044.500, 2074.781
1045.000, 2073.455
1045.500, 2062.981
1046.000, 2056.243
1046.500, 2054.357
1047.000, 2043.371
1047.500, 2039.922
1048.000, 2043.565
1048.500, 2041.825
1049.000, 2046.069
1049.500, 2050.646
1050.000, 2056.454
1050.500, 2064.469
1051.000, 2072.085
1051.500, 2072.469
1052.000, 2080.559
1052.500, 2093.457
1053.000, 2111.646
1053.500, 2132.917
1054.000, 2161.792
1054.500, 2205.892
1055.000, 2242.965
1055.500, 2279.559
1056.000, 2317.661
1056.500, 2344.212
1057.000, 2379.429
1057.500, 2407.996
1058.000, 2454.897
1058.500, 2515.199
1059.000, 2583.893
1059.500, 2575.717
1060.000, 2594.278
1060.500, 2627.532
1061.000, 2605.629
1061.500, 2609.371
1062.000, 2614.756
1062.500, 2553.440
1063.000, 2535.705
1063.500, 2534.790
1064.000, 2527.745
1064.500, 2520.367
1065.000, 2525.389
1065.500, 2514.817
1066.000, 2531.873
1066.500, 2539.872
1067.000, 2538.541
1067.500, 2579.812
1068.000, 2615.237
1068.500, 2637.935
1069.000, 2709.982
1069.500, 2767.091
1070.000, 2807.663
1070.500, 2819.490
1071.000, 2837.375
1071.500, 2857.175
1072.000, 2860.525
1072.500, 2861.088
1073.000, 2859.795
1073.500, 2856.744
1074.000, 2855.801
1074.500, 2857.640
1075.000, 2864.902
1075.500, 2888.744
1076.000, 2922.962
1076.500, 2969.341
1077.000, 3002.893
1077.500, 3039.924
1078.000, 3083.915
1078.500, 3141.100
1079.000, 3165.124
1079.500, 3159.335
1080.000, 3238.898
1080.500, 3248.234
1081.000, 3219.200
1081.500, 3281.461
1082.000, 3269.785
1082.500, 3219.455
1083.000, 3168.206
1083.500, 3162.686
1084.000, 3138.785
1084.500, 3024.997
1085.000, 2985.337
1085.500, 2938.224
1086.000, 2848.549
1086.500, 2810.446
1087.000, 2747.670
1087.500, 2646.505
1088.000, 2602.755
1088.500, 2552.224
1089.000, 2497.315
1089.500, 2481.040
1090.000, 2413.419
1090.500, 2389.174
1091.000, 2333.528
1091.500, 2313.471
1092.000, 2274.062
1092.500, 2207.801
1093.000, 2179.862
1093.500, 2163.733
1094.000, 2149.182
1094.500, 2120.730
1095.000, 2101.498
1095.500, 2099.009
1096.000, 2065.914
1096.500, 2043.146
1097.000, 2031.530
1097.500, 1992.799
1098.000, 1981.856
1098.500, 1986.016
1099.000, 1956.491
1099.500, 1958.972
1100.000, 1963.042
1100.500, 1915.682
1101.000, 1914.246
1101.500, 1921.495
1102.000, 1915.554
1102.500, 1910.097
1103.000, 1895.828
1103.500, 1867.989
1104.000, 1847.204
1104.500, 1841.189
1105.000, 1849.633
1105.500, 1841.369
1106.000, 1829.759
1106.500, 1814.419
1107.000, 1790.031
1107.500, 1795.958
1108.000, 1817.176
1108.500, 1840.643
1109.000, 1798.435
1109.500, 1764.827
1110.000, 1792.337
1110.500, 1780.960
1111.000, 1777.255
1111.500, 1793.219
1112.000, 1784.818
1112.500, 1772.459
1113.000, 1757.687
1113.500, 1750.001
1114.000, 1733.205
1114.500, 1716.793
1115.000, 1734.491
1115.500, 1742.850
1116.000, 1743.176
1116.500, 1731.437
1117.000, 1730.842
1117.500, 1734.806
1118.000, 1742.130
1118.500, 1741.096
1119.000, 1747.307
1119.500, 1763.122
1120.000, 1735.204
1120.500, 1714.480
1121.000, 1743.168
1121.500, 1759.861
1122.000, 1765.205
1122.500, 1725.206
1123.000, 1743.758
1123.500, 1738.845
1124.000, 1732.970
1124.500, 1759.762
1125.000, 1726.358
1125.500, 1752.633
1126.000, 1755.085
1126.500, 1752.015
1127.000, 1763.303
1127.500, 1764.220
1128.000, 1749.552
1128.500, 1751.552
1129.000, 1766.299
1129.500, 1793.917
1130.000, 1799.913
1130.500, 1791.859
1131.000, 1768.497
1131.500, 1794.775
1132.000, 1811.788
1132.500, 1800.015
1133.000, 1810.209
1133.500, 1826.260
1134.000, 1844.820
1134.500, 1848.363
1135.000, 1836.338
1135.500, 1857.793
1136.000, 1862.827
1136.500, 1867.022
1137.000, 1877.497
1137.500, 1905.115
1138.000, 1906.222
1138.500, 1900.625
1139.000, 1892.895
1139.500, 1879.673
1140.000, 1872.833
1140.500, 1871.679
1141.000, 1854.869
1141.500, 1843.149
1142.000, 1833.271
1142.500, 1816.843
1143.000, 1806.085
1143.500, 1791.537
1144.000, 1783.529
1144.500, 1768.611
1145.000, 1769.769
1145.500, 1753.316
1146.000, 1746.902
1146.500, 1746.624
1147.000, 1748.800
1147.500, 1716.076
1148.000, 1708.036
1148.500, 1711.114
1149.000, 1701.037
1149.500, 1702.334
1150.000, 1701.942
1150.500, 1689.556
1151.000, 1670.073
1151.500, 1663.532
1152.000, 1675.561
1152.500, 1692.773
1153.000, 1681.562
1153.500, 1651.791
1154.000, 1660.327
1154.500, 1665.362
1155.000, 1674.468
1155.500, 1673.925
1156.000, 1673.386
1156.500, 1666.709
1157.000, 1660.123
1157.500, 1644.478
1158.000, 1625.484
1158.500, 1606.361
1159.000, 1653.359
1159.500, 1677.634
1160.000, 1681.476
1160.500, 1657.992
1161.000, 1648.423
1161.500, 1639.821
1162.000, 1620.380
1162.500, 1638.602
1163.000, 1657.708
1163.500, 1668.604
1164.000, 1668.294
1164.500, 1671.079
1165.000, 1657.056
1165.500, 1661.536
1166.000, 1656.303
1166.500, 1653.041
1167.000, 1672.688
1167.500, 1658.526
1168.000, 1636.621
1168.500, 1616.572
1169.000, 1629.428
1169.500, 1630.759
1170.000, 1618.339
1170.500, 1627.497
1171.000, 1632.686
1171.500, 1633.807
1172.000, 1637.620
1172.500, 1632.703
1173.000, 1638.798
1173.500, 1639.522
1174.000, 1639.154
1174.500, 1642.188
1175.000, 1640.893
1175.500, 1641.601
1176.000, 1638.225
1176.500, 1637.347
1177.000, 1632.485
1177.500, 1638.064
1178.000, 1641.718
1178.500, 1629.831
1179.000, 1621.434
1179.500, 1628.250
1180.000, 1655.553
1180.500, 1650.628
1181.000, 1648.405
1181.500, 1646.520
1182.000, 1639.127
1182.500, 1626.023
1183.000, 1627.325
1183.500, 1617.766
1184.000, 1616.451
1184.500, 1630.538
1185.000, 1665.499
1185.500, 1649.526
1186.000, 1643.067
1186.500, 1641.027
1187.000, 1630.461
1187.500, 1603.851
1188.000, 1630.564
1188.500, 1617.492
1189.000, 1644.087
1189.500, 1655.896
1190.000, 1629.934
1190.500, 1615.152
1191.000, 1608.941
1191.500, 1610.614
1192.000, 1618.639
1192.500, 1629.809
1193.000, 1637.276
1193.500, 1628.289
1194.000, 1639.836
1194.500, 1649.054
1195.000, 1647.107
1195.500, 1657.523
1196.000, 1660.083
1196.500, 1652.451
1197.000, 1621.178
1197.500, 1611.710
1198.000, 1616.922
1198.500, 1634.946
1199.000, 1625.443
1199.500, 1634.908
1200.000, 1622.056
1200.500, 1635.497
1201.000, 1635.245
1201.500, 1626.014
1202.000, 1645.800
1202.500, 1630.631
1203.000, 1610.679
1203.500, 1620.476
1204.000, 1621.887
1204.500, 1620.723
1205.000, 1618.187
1205.500, 1618.164
1206.000, 1618.811
1206.500, 1622.124
1207.000, 1624.290
1207.500, 1625.912
1208.000, 1623.713
1208.500, 1628.744
1209.000, 1620.251
1209.500, 1618.841
1210.000, 1624.140
1210.500, 1638.072
1211.000, 1649.197
1211.500, 1657.605
1212.000, 1662.123
1212.500, 1665.101
1213.000, 1666.210
1213.500, 1664.554
1214.000, 1664.223
1214.500, 1658.590
1215.000, 1648.041
1215.500, 1649.621
1216.000, 1644.015
1216.500, 1637.513
1217.000, 1642.040
1217.500, 1651.279
1218.000, 1644.562
1218.500, 1641.241
1219.000, 1625.945
1219.500, 1629.152
1220.000, 1624.262
1220.500, 1632.291
1221.000, 1651.589
1221.500, 1635.104
1222.000, 1652.026
1222.500, 1655.344
1223.000, 1653.265
1223.500, 1647.433
1224.000, 1659.653
1224.500, 1666.104
1225.000, 1668.925
1225.500, 1673.055
1226.000, 1671.259
1226.500, 1674.145
1227.000, 1689.907
1227.500, 1661.107
1228.000, 1647.112
1228.500, 1652.395
1229.000, 1665.794
1229.500, 1649.686
1230.000, 1628.013
1230.500, 1634.324
1231.000, 1663.685
1231.500, 1673.157
1232.000, 1647.534
1232.500, 1644.304
1233.000, 1642.870
1233.500, 1646.040
1234.000, 1666.556
1234.500, 1668.810
1235.000, 1663.059
1235.500, 1653.636
1236.000, 1669.364
1236.500, 1677.537
1237.000, 1676.097
1237.500, 1680.649
1238.000, 1663.134
1238.500, 1652.903
1239.000, 1659.173
1239.500, 1690.103
1240.000, 1675.143
1240.500, 1664.486
1241.000, 1685.597
1241.500, 1675.259
1242.000, 1648.509
1242.500, 1647.137
1243.000, 1670.138
1243.500, 1687.359
1244.000, 1679.470
1244.500, 1673.788
1245.000, 1671.050
1245.500, 1670.976
1246.000, 1671.842
1246.500, 1673.368
1247.000, 1674.983
1247.500, 1676.087
1248.000, 1677.982
1248.500, 1678.967
1249.000, 1681.307
1249.500, 1681.713
1250.000, 1682.794
1250.500, 1685.367
1251.000, 1685.519
1251.500, 1688.585
1252.000, 1685.656
1252.500, 1686.656
1253.000, 1683.557
1253.500, 1679.376
1254.000, 1679.509
1254.500, 1705.457
1255.000, 1688.863
1255.500, 1680.856
1256.000, 1715.721
1256.500, 1713.961
1257.000, 1708.682
1257.500, 1707.292
1258.000, 1701.767
1258.500, 1702.799
1259.000, 1689.968
1259.500, 1706.416
1260.000, 1699.743
1260.500, 1703.916
1261.000, 1721.538
1261.500, 1714.224
1262.000, 1707.685
1262.500, 1703.779
1263.000, 1706.567
1263.500, 1709.855
1264.000, 1717.368
1264.500, 1729.574
1265.000, 1715.704
1265.500, 1709.554
1266.000, 1712.178
1266.500, 1729.866
1267.000, 1726.486
1267.500, 1713.013
1268.000, 1691.971
1268.500, 1692.694
1269.000, 1684.632
1269.500, 1691.201
1270.000, 1686.248
1270.500, 1697.809
1271.000, 1706.931
1271.500, 1703.169
1272.000, 1704.792
1272.500, 1703.346
1273.000, 1700.518
1273.500, 1698.544
1274.000, 1708.519
1274.500, 1711.772
1275.000, 1693.714
1275.500, 1713.438
1276.000, 1713.556
1276.500, 1696.493
1277.000, 1699.288
1277.500, 1702.944
1278.000, 1712.025
1278.500, 1732.123
1279.000, 1702.701
1279.500, 1687.908
1280.000, 1694.447
1280.500, 1722.933
1281.000, 1709.936
1281.500, 1699.433
1282.000, 1736.282
1282.500, 1730.850
1283.000, 1710.198
1283.500, 1685.166
1284.000, 1722.619
1284.500, 1718.144
1285.000, 1707.307
1285.500, 1728.063
1286.000, 1706.442
1286.500, 1706.262
1287.000, 1729.954
1287.500, 1699.893
1288.000, 1701.538
1288.500, 1712.240
1289.000, 1707.866
1289.500, 1707.701
1290.000, 1721.840
1290.500, 1715.134
1291.000, 1725.922
1291.500, 1718.992
1292.000, 1722.798
1292.500, 1736.969
1293.000, 1729.603
1293.500, 1725.539
1294.000, 1726.717
1294.500, 1709.183
1295.000, 1711.212
1295.500, 1729.006
1296.000, 1727.641
1296.500, 1752.584
1297.000, 1747.509
1297.500, 1755.060
1298.000, 1762.063
1298.500, 1744.742
1299.000, 1725.084
1299.500, 1726.694
1300.000, 1737.926
1300.500, 1755.942
1301.000, 1775.294
1301.500, 1752.906
1302.000, 1755.704
1302.500, 1760.063
1303.000, 1743.075
1303.500, 1754.356
1304.000, 1770.394
1304.500, 1783.072
1305.000, 1779.506
1305.500, 1760.151
1306.000, 1768.164
1306.500, 1755.360
1307.000, 1749.238
1307.500, 1752.873
1308.000, 1764.366
1308.500, 1773.779
1309.000, 1769.455
1309.500, 1765.812
1310.000, 1772.766
1310.500, 1778.133
1311.000, 1776.724
1311.500, 1772.906
1312.000, 1784.738
1312.500, 1788.744
1313.000, 1784.100
1313.500, 1768.890
1314.000, 1763.085
1314.500, 1786.303
1315.000, 1816.419
1315.500, 1789.190
1316.000, 1789.304
1316.500, 1792.185
1317.000, 1788.865
1317.500, 1774.836
1318.000, 1774.614
1318.500, 1776.127
1319.000, 1754.878
1319.500, 1780.920
1320.000, 1793.259
1320.500, 1777.575
1321.000, 1775.583
1321.500, 1769.619
1322.000, 1768.390
1322.500, 1785.678
1323.000, 1788.152
1323.500, 1790.879
1324.000, 1796.065
1324.500, 1801.364
##END=



