##NAMES=Pyrite
##RRUFFID=R050190
##IDEAL CHEMISTRY=Fe^2+^(S_2_)^2-^
##LOCALITY=Huanzala mine, Huallanca District, Dos de Mayo Province, Huanuco Department, Peru
##OWNER=RRUFF
##SOURCE=Dave Bunk Minerals
##DESCRIPTION=Brass yellow modified cubes with typical pyrite striations
##STATUS=The identification of this mineral has been confirmed by X-ray diffraction and chemical analysis
##URL=rruff.info/R050190
##MEASURED CHEMISTRY=Fe_1.00_S_2.00_
142.016, 1545.000
143.401, 1497.000
144.787, 1452.763
146.172, 1433.111
147.557, 1445.000
148.942, 1422.000
150.327, 1433.000
151.711, 1441.000
153.096, 1394.944
154.480, 1444.000
155.863, 1317.000
157.247, 1339.000
158.630, 1323.000
160.013, 1410.000
161.396, 1483.000
162.779, 1442.000
164.161, 1421.000
165.544, 1361.000
166.926, 1354.000
168.308, 1333.939
169.689, 1399.000
171.070, 1318.000
172.452, 1347.000
173.833, 1344.000
175.213, 1298.000
176.594, 1319.000
177.974, 1307.079
179.354, 1284.939
180.734, 1340.000
182.114, 1263.000
183.493, 1331.000
184.872, 1355.000
186.251, 1313.000
187.630, 1278.000
189.008, 1280.000
190.387, 1310.000
191.765, 1367.000
193.143, 1394.000
194.520, 1398.000
195.898, 1401.000
197.275, 1400.000
198.652, 1398.000
200.029, 1416.000
201.405, 1408.000
202.782, 1424.000
204.158, 1604.000
205.534, 1542.324
206.909, 1476.000
208.285, 1486.000
209.660, 1290.000
211.035, 1137.000
212.410, 1108.000
213.784, 1088.000
215.159, 1071.000
216.533, 1102.000
217.907, 1080.000
219.281, 1053.000
220.654, 1086.000
222.027, 1075.000
223.400, 1049.000
224.773, 1068.000
226.146, 1027.000
227.518, 1054.000
228.891, 1038.000
230.263, 1060.000
231.634, 1036.000
233.006, 1029.000
234.377, 1056.000
235.748, 1042.000
237.119, 1032.000
238.490, 1037.150
239.860, 1042.000
241.231, 1033.000
242.601, 1019.000
243.970, 1027.000
245.340, 1035.000
246.709, 1014.000
248.079, 1044.000
249.448, 1019.000
250.816, 1034.000
252.185, 1014.000
253.553, 1024.000
254.921, 1032.000
256.289, 992.000
257.657, 1020.000
259.024, 1016.000
260.391, 1018.000
261.758, 1026.000
263.125, 1002.000
264.492, 1041.000
265.858, 1017.000
267.224, 1055.000
268.590, 1019.000
269.956, 1045.000
271.321, 1015.000
272.687, 1028.000
274.052, 1001.000
275.416, 1041.000
276.781, 1028.000
278.146, 1008.000
279.510, 1016.000
280.874, 1006.000
282.237, 1013.000
283.601, 985.000
284.964, 1009.000
286.327, 1008.000
287.690, 1022.000
289.053, 1005.000
290.416, 1016.000
291.778, 990.000
293.140, 1018.000
294.502, 1024.000
295.863, 1024.000
297.225, 1020.000
298.586, 1008.000
299.947, 1019.000
301.308, 986.000
302.668, 985.000
304.029, 1032.000
305.389, 995.000
306.749, 1024.000
308.108, 1016.000
309.468, 1032.000
310.827, 1069.000
312.186, 996.000
313.545, 1030.000
314.903, 1043.000
316.262, 1067.000
317.620, 1076.000
318.978, 1084.184
320.336, 1075.000
321.693, 1088.000
323.051, 1108.000
324.408, 1101.000
325.765, 1121.000
327.121, 1136.000
328.478, 1164.000
329.834, 1233.000
331.190, 1302.000
332.546, 1395.000
333.902, 1729.000
335.257, 1841.000
336.612, 2286.000
337.967, 2904.000
339.322, 4208.000
340.677, 7737.000
342.031, 10938.000
343.385, 7508.000
344.739, 4140.000
346.093, 2660.000
347.446, 2126.000
348.799, 2106.000
350.153, 1723.000
351.505, 1534.000
352.858, 1408.000
354.210, 1372.000
355.563, 1390.000
356.915, 1332.000
358.267, 1334.000
359.618, 1348.000
360.969, 1399.000
362.321, 1434.000
363.672, 1522.000
365.022, 1600.000
366.373, 1778.000
367.723, 1774.000
369.073, 1991.000
370.423, 2350.000
371.773, 2909.000
373.122, 3891.000
374.471, 5353.000
375.821, 8268.000
377.169, 16146.000
378.518, 20542.000
379.866, 13725.000
381.215, 7536.000
382.563, 4439.000
383.910, 3099.000
385.258, 2476.000
386.605, 2121.000
387.952, 1801.000
389.299, 1678.000
390.646, 1548.000
391.992, 1442.000
393.339, 1399.000
394.685, 1299.000
396.031, 1293.000
397.376, 1237.000
398.722, 1242.000
400.067, 1194.000
401.412, 1184.000
402.757, 1156.000
404.101, 1138.000
405.446, 1112.000
406.790, 1103.000
408.134, 1076.000
409.478, 1074.000
410.821, 1066.000
412.165, 1067.000
413.508, 1068.000
414.851, 1093.000
416.193, 1046.000
417.536, 1050.000
418.878, 1073.000
420.220, 1096.000
421.562, 1078.000
422.904, 1132.000
424.245, 1120.000
425.586, 1206.000
426.927, 1294.000
428.268, 1426.000
429.609, 1479.000
430.949, 1386.000
432.289, 1284.000
433.629, 1169.000
434.969, 1129.000
436.309, 1093.000
437.648, 1062.000
438.987, 1034.801
440.326, 1032.000
441.665, 999.275
443.003, 992.398
444.342, 998.000
445.680, 983.000
447.018, 989.000
448.355, 981.000
449.693, 951.000
451.030, 973.000
452.367, 956.000
453.704, 953.000
455.041, 951.000
456.377, 954.000
457.713, 969.000
459.049, 955.000
460.385, 963.000
461.721, 954.000
463.056, 943.000
464.391, 957.000
465.726, 941.000
467.061, 941.000
468.395, 946.000
469.730, 987.000
471.064, 936.000
472.398, 931.000
473.731, 990.000
475.065, 946.000
476.398, 949.000
477.731, 941.000
479.064, 978.000
480.397, 965.000
481.729, 953.000
483.062, 926.000
484.394, 951.000
485.725, 947.000
487.057, 921.000
488.389, 947.000
489.720, 942.000
491.051, 950.000
492.382, 942.000
493.712, 938.000
495.043, 935.837
496.373, 933.000
497.703, 925.000
499.032, 920.000
500.362, 914.000
501.691, 914.174
503.020, 941.000
504.349, 918.000
505.678, 933.000
507.007, 938.000
508.335, 925.000
509.663, 949.000
510.991, 943.000
512.319, 947.000
513.646, 945.868
514.973, 930.000
516.300, 937.000
517.627, 933.000
518.954, 939.000
520.280, 932.000
521.607, 937.000
522.933, 935.000
524.259, 971.000
525.584, 945.000
526.910, 960.000
528.235, 931.000
529.560, 943.000
530.885, 952.000
532.209, 938.000
533.534, 932.000
534.858, 941.000
536.182, 940.000
537.506, 938.292
538.829, 936.854
540.152, 932.000
541.476, 931.000
542.799, 922.000
544.121, 928.000
545.444, 933.000
546.766, 915.000
548.088, 940.000
549.410, 938.000
550.732, 936.000
552.053, 945.000
553.375, 942.000
554.696, 944.000
556.017, 943.000
557.337, 933.000
558.658, 947.000
559.978, 937.090
561.298, 941.811
562.618, 930.000
563.938, 944.000
565.257, 944.000
566.576, 938.000
567.895, 948.000
569.214, 947.000
570.533, 969.000
571.851, 942.000
573.170, 957.000
574.488, 950.000
575.805, 942.000
577.123, 921.000
578.440, 945.000
579.758, 931.000
581.075, 947.000
582.391, 937.000
583.708, 927.000
585.024, 920.000
586.341, 903.000
587.657, 917.000
588.972, 920.000
590.288, 957.000
591.603, 918.000
592.918, 908.000
594.233, 883.100
595.548, 915.044
596.863, 933.189
598.177, 938.277
599.491, 891.203
600.805, 911.486
602.119, 911.000
603.432, 914.000
604.746, 934.000
606.059, 934.000
607.372, 930.000
608.685, 948.000
609.997, 934.170
611.309, 933.593
612.621, 920.000
613.933, 912.000
615.245, 910.000
616.557, 885.000
617.868, 896.000
619.179, 917.000
620.490, 907.000
621.801, 886.000
623.111, 888.000
624.421, 921.000
625.731, 884.000
627.041, 916.000
628.351, 891.000
629.660, 908.000
630.970, 918.000
632.279, 914.000
633.588, 908.000
634.896, 902.000
636.205, 900.472
637.513, 904.000
638.821, 896.000
640.129, 901.836
641.437, 897.632
642.744, 902.000
644.051, 896.000
645.358, 889.000
646.665, 894.696
647.972, 895.404
649.278, 902.000
650.584, 906.000
651.890, 911.000
653.196, 913.000
654.502, 915.000
655.807, 903.000
657.113, 918.000
658.418, 907.000
659.722, 898.000
661.027, 899.000
662.331, 915.000
663.636, 924.000
664.940, 908.000
666.244, 899.000
667.547, 921.000
668.851, 909.000
670.154, 910.000
671.457, 920.000
672.760, 896.000
674.062, 913.000
675.365, 917.000
676.667, 908.000
677.969, 911.000
679.271, 908.000
680.572, 905.000
681.874, 921.000
683.175, 929.000
684.476, 925.000
685.777, 902.000
687.077, 888.000
688.378, 898.000
689.678, 918.000
690.978, 884.000
692.278, 900.000
693.577, 905.000
694.877, 904.000
696.176, 914.000
697.475, 913.686
698.774, 919.000
700.072, 915.000
701.371, 910.000
702.669, 905.000
703.967, 920.000
705.265, 899.000
706.562, 906.000
707.860, 913.000
709.157, 941.000
710.454, 956.000
711.751, 946.000
713.047, 912.000
714.344, 939.000
715.640, 915.000
716.936, 934.000
718.232, 946.000
719.527, 933.000
720.823, 902.000
722.118, 913.000
723.413, 931.000
724.708, 930.000
726.002, 946.000
727.297, 939.000
728.591, 948.000
729.885, 947.000
731.179, 947.000
732.472, 934.000
733.766, 948.000
735.059, 946.000
736.352, 935.000
737.645, 938.000
738.937, 966.000
740.230, 953.712
741.522, 1000.000
742.814, 963.000
744.106, 929.000
745.397, 952.000
746.689, 954.000
747.980, 943.000
749.271, 960.252
750.562, 943.926
751.853, 980.000
753.143, 933.000
754.433, 949.000
755.723, 969.000
757.013, 985.000
758.303, 968.000
759.592, 960.000
760.881, 984.000
762.170, 961.000
763.459, 965.000
764.748, 960.000
766.036, 998.000
767.325, 960.000
768.613, 984.000
769.901, 992.000
771.188, 962.000
772.476, 988.000
773.763, 988.000
775.050, 985.000
776.337, 975.000
777.624, 983.000
778.910, 974.000
780.196, 973.375
781.482, 966.972
782.768, 967.000
784.054, 956.000
785.339, 947.000
786.625, 955.000
787.910, 969.000
789.195, 975.000
790.479, 966.000
791.764, 994.000
793.048, 963.000
794.332, 976.000
795.616, 981.000
796.900, 974.000
798.183, 961.000
799.467, 973.000
800.750, 991.000
802.033, 969.000
803.316, 1004.000
804.598, 1009.390
805.880, 986.755
807.163, 968.755
808.445, 985.885
809.726, 994.490
811.008, 995.025
812.289, 963.325
813.570, 973.252
814.851, 966.496
816.132, 968.000
817.413, 966.416
818.693, 961.982
819.973, 956.000
821.253, 951.000
822.533, 948.413
823.813, 946.000
825.092, 945.000
826.371, 942.000
827.650, 942.825
828.929, 945.396
830.208, 954.000
831.486, 948.000
832.764, 980.000
834.042, 972.000
835.320, 956.000
836.598, 941.000
837.875, 968.000
839.152, 976.000
840.429, 957.000
841.706, 957.000
842.983, 958.000
844.259, 969.000
845.536, 938.000
846.812, 978.000
848.088, 968.000
849.363, 957.000
850.639, 976.000
851.914, 960.000
853.189, 935.000
854.464, 970.000
855.739, 970.000
857.013, 966.000
858.288, 987.000
859.562, 980.254
860.836, 982.000
862.110, 982.000
863.383, 970.000
864.656, 970.000
865.930, 1002.000
867.203, 994.000
868.475, 1010.000
869.748, 1026.000
871.020, 966.000
872.292, 973.000
873.564, 982.000
874.836, 964.000
876.108, 968.000
877.379, 973.000
878.650, 975.000
879.922, 932.000
881.192, 940.000
882.463, 943.000
883.733, 973.000
885.004, 942.000
886.274, 939.000
887.544, 962.000
888.813, 934.000
890.083, 962.000
891.352, 984.000
892.621, 963.000
893.890, 960.000
895.159, 957.000
896.427, 962.000
897.695, 963.822
898.964, 985.000
900.232, 974.000
901.499, 970.000
902.767, 973.000
904.034, 955.000
905.301, 985.000
906.568, 986.000
907.835, 970.000
909.102, 1002.000
910.368, 998.000
911.634, 967.000
912.900, 1007.000
914.166, 984.000
915.432, 968.000
916.697, 964.000
917.962, 977.000
919.227, 996.000
920.492, 1010.000
921.757, 1009.000
923.021, 1024.000
924.285, 1030.000
925.550, 1028.083
926.813, 1047.000
928.077, 1025.987
929.341, 1017.295
930.604, 1020.000
931.867, 1001.000
933.130, 1010.000
934.393, 1006.748
935.655, 1024.000
936.918, 1008.000
938.180, 1018.000
939.442, 1014.000
940.703, 1029.000
941.965, 1034.000
943.226, 1040.000
944.488, 1034.000
945.749, 1033.000
947.009, 1036.310
948.270, 1028.000
949.530, 1040.000
950.791, 1052.000
952.051, 1052.545
953.311, 1011.000
954.570, 1051.000
955.830, 1045.000
957.089, 1040.000
958.348, 1067.000
959.607, 1062.674
960.866, 1061.000
962.124, 1076.000
963.383, 1092.000
964.641, 1093.900
965.899, 1063.000
967.156, 1058.000
968.414, 1111.000
969.671, 1050.000
970.928, 1113.000
972.185, 1092.644
973.442, 1075.000
974.699, 1074.000
975.955, 1077.000
977.211, 1060.000
978.468, 1081.000
979.723, 1077.205
980.979, 1076.199
982.234, 1097.000
983.490, 1082.000
984.745, 1110.000
986.000, 1129.000
987.254, 1111.000
988.509, 1131.000
989.763, 1106.000
991.017, 1088.898
992.271, 1119.159
993.525, 1137.924
994.779, 1145.809
996.032, 1110.226
997.285, 1130.769
998.538, 1128.819
999.791, 1125.947
1001.044, 1154.389
1002.296, 1146.000
1003.548, 1172.000
1004.800, 1166.000
1006.052, 1176.343
1007.304, 1180.600
1008.555, 1171.000
1009.807, 1170.000
1011.058, 1171.000
1012.309, 1164.403
1013.559, 1156.000
1014.810, 1154.000
1016.060, 1146.000
1017.310, 1134.000
1018.560, 1147.000
1019.810, 1148.000
1021.060, 1117.000
1022.309, 1134.000
1023.558, 1118.444
1024.807, 1150.000
1026.056, 1118.000
1027.305, 1127.000
1028.553, 1155.000
1029.801, 1137.000
1031.049, 1132.000
1032.297, 1138.000
1033.545, 1144.000
1034.793, 1154.000
1036.040, 1152.000
1037.287, 1154.000
1038.534, 1158.000
1039.781, 1173.000
1041.027, 1170.241
1042.274, 1166.965
1043.520, 1177.000
1044.766, 1142.000
1046.012, 1152.000
1047.257, 1124.000
1048.503, 1155.000
1049.748, 1152.000
1050.993, 1145.000
1052.238, 1149.000
1053.483, 1115.000
1054.727, 1147.000
1055.971, 1169.000
1057.216, 1135.000
1058.459, 1194.000
1059.703, 1184.000
1060.947, 1178.000
1062.190, 1152.000
1063.433, 1153.384
1064.676, 1164.000
1065.919, 1148.000
1067.162, 1158.000
1068.404, 1161.000
1069.646, 1165.000
1070.888, 1168.000
1072.130, 1159.000
1073.372, 1149.000
1074.613, 1157.000
1075.855, 1132.000
1077.096, 1137.000
1078.337, 1167.000
1079.578, 1134.000
1080.818, 1159.000
1082.059, 1142.000
1083.299, 1152.000
1084.539, 1104.000
1085.779, 1138.000
1087.018, 1123.000
1088.258, 1156.000
1089.497, 1134.000
1090.736, 1133.000
1091.975, 1152.000
1093.213, 1125.000
1094.452, 1126.000
1095.690, 1112.000
1096.928, 1112.000
1098.166, 1117.340
1099.404, 1111.364
1100.642, 1116.000
1101.879, 1120.000
1103.116, 1082.000
1104.353, 1102.000
1105.590, 1073.000
1106.827, 1068.000
1108.063, 1036.141
1109.299, 1074.497
1110.536, 1095.810
1111.771, 1100.994
1113.007, 1041.743
1114.243, 1065.697
1115.478, 1056.306
1116.713, 1045.548
1117.948, 1081.213
1119.183, 1031.334
1120.418, 1066.263
1121.652, 1067.338
1122.886, 1083.907
1124.120, 1066.926
1125.354, 1060.308
1126.588, 1087.250
1127.821, 1095.611
1129.055, 1074.767
1130.288, 1092.322
1131.521, 1041.272
1132.753, 1056.000
1133.986, 1060.000
1135.218, 1054.000
1136.450, 1024.000
1137.682, 1080.000
1138.914, 1010.000
1140.146, 1051.000
1141.377, 1041.000
1142.609, 1010.000
1143.840, 1017.000
1145.071, 1040.000
1146.301, 1033.000
1147.532, 1019.000
1148.762, 1036.000
1149.992, 1041.000
1151.222, 1025.000
1152.452, 1010.000
1153.682, 998.000
1154.911, 1026.000
1156.140, 1001.000
1157.369, 1025.000
1158.598, 1011.000
1159.827, 1010.000
1161.055, 1015.578
1162.284, 1012.315
1163.512, 1019.000
1164.740, 1017.000
1165.967, 1025.000
1167.195, 1024.000
1168.422, 1006.000
1169.650, 1004.000
1170.877, 988.000
1172.103, 998.000
1173.330, 1003.000
1174.557, 1005.000
1175.783, 993.000
1177.009, 996.000
1178.235, 998.000
1179.461, 1014.000
1180.686, 1020.000
1181.912, 1017.877
1183.137, 1016.685
1184.362, 1010.000
1185.587, 995.000
1186.811, 988.000
1188.036, 967.000
1189.260, 992.000
1190.484, 1041.000
1191.708, 1011.254
1192.932, 1060.000
1194.155, 994.000
1195.378, 984.000
1196.602, 992.000
1197.825, 982.000
1199.047, 987.000
1200.270, 990.000
1201.492, 984.000
1202.715, 1004.000
1203.937, 1004.000
1205.159, 1028.000
1206.380, 1027.541
1207.602, 988.000
1208.823, 1026.000
1210.044, 1008.000
1211.265, 995.000
1212.486, 1016.000
1213.707, 970.000
1214.927, 1012.000
1216.147, 1033.000
1217.367, 996.000
1218.587, 1000.000
1219.807, 1006.000
1221.027, 997.000
1222.246, 1001.000
1223.465, 994.000
1224.684, 1003.000
1225.903, 993.000
1227.121, 995.000
1228.340, 992.832
1229.558, 996.000
1230.776, 990.000
1231.994, 979.000
1233.212, 984.000
1234.429, 1002.000
1235.646, 996.000
1236.864, 1024.000
1238.081, 1017.000
1239.297, 1019.000
1240.514, 1005.000
1241.730, 977.000
1242.947, 984.000
1244.163, 1006.000
1245.378, 994.000
1246.594, 1013.000
1247.810, 996.000
1249.025, 986.000
1250.240, 993.000
1251.455, 982.000
1252.670, 998.000
1253.885, 980.157
1255.099, 1003.481
1256.313, 1016.811
1257.527, 1020.686
1258.741, 986.784
1259.955, 1001.663
1261.168, 996.992
1262.382, 991.520
1263.595, 1013.264
1264.808, 1003.000
1266.021, 984.000
1267.233, 1002.000
1268.446, 980.000
1269.658, 978.000
1270.870, 992.000
1272.082, 1001.000
1273.294, 988.000
1274.505, 971.000
1275.716, 1015.000
1276.928, 998.000
1278.139, 1006.817
1279.349, 1024.000
1280.560, 996.000
1281.770, 1006.000
1282.981, 969.000
1284.191, 1008.000
1285.401, 1016.000
1286.610, 1030.000
1287.820, 1010.000
1289.029, 1014.000
1290.239, 1007.000
1291.448, 993.000
1292.656, 1001.000
1293.865, 1000.132
1295.073, 995.188
1296.282, 1012.000
1297.490, 994.000
1298.698, 995.000
1299.906, 1003.000
1301.113, 996.138
1302.320, 992.456
1303.528, 1004.000
1304.735, 979.000
1305.942, 993.000
1307.148, 995.000
1308.355, 1026.000
1309.561, 990.000
1310.767, 1004.000
1311.973, 977.000
1313.179, 1013.000
1314.384, 1028.000
1315.590, 1001.000
1316.795, 1014.000
1318.000, 1021.000
1319.205, 1011.000
1320.410, 1013.000
1321.614, 1012.000
1322.819, 1024.000
1324.023, 998.000
1325.227, 1054.000
1326.431, 1032.000
1327.634, 1029.000
1328.838, 995.000
1330.041, 1024.000
1331.244, 1035.000
1332.447, 1014.000
1333.650, 1022.878
1334.852, 1016.786
1336.055, 1009.000
1337.257, 1013.000
1338.459, 1017.000
1339.661, 1024.000
1340.862, 1045.000
1342.064, 1014.000
1343.265, 1034.000
1344.466, 1024.000
1345.667, 1039.000
1346.868, 1042.000
1348.068, 1032.000
1349.269, 1028.000
1350.469, 1035.000
1351.669, 1065.000
1352.869, 1024.000
1354.069, 1042.000
1355.268, 1011.000
1356.468, 1040.000
1357.667, 1040.000
1358.866, 1067.000
1360.065, 1058.754
1361.263, 1065.725
1362.462, 1030.000
1363.660, 1075.000
1364.858, 1042.000
1366.056, 1062.000
1367.254, 1063.165
1368.451, 1062.000
1369.649, 1056.000
1370.846, 1056.000
1372.043, 1041.000
1373.240, 1050.000
1374.436, 1059.000
1375.633, 1075.000
1376.829, 1068.999
1378.025, 1055.000
1379.221, 1056.000
1380.417, 1034.000
1381.613, 1021.000
1382.808, 1071.000
1384.003, 1065.000
1385.199, 1057.000
1386.393, 1038.000
1387.588, 1059.000
1388.783, 1037.000
1389.977, 1056.000
1391.171, 1041.000
1392.365, 1046.000
1393.559, 1091.000
1394.753, 1064.111
1395.946, 1090.000
1397.140, 1045.000
1398.333, 1059.000
1399.526, 1051.000
1400.719, 1056.000
1401.911, 1079.000
1403.104, 1073.000
1404.296, 1074.385
1405.488, 1038.000
1406.680, 1056.000
1407.872, 1056.000
1409.063, 1034.000
1410.255, 1074.000
1411.446, 1067.000
1412.637, 1043.000
1413.828, 1061.000
1415.018, 1049.000
1416.209, 1064.000
1417.399, 1057.000
1418.589, 1063.265
1419.779, 1056.000
1420.969, 1074.000
1422.159, 1085.000
1423.348, 1088.000
1424.537, 1083.000
1425.726, 1086.759
1426.915, 1073.000
1428.104, 1082.000
1429.293, 1080.000
1430.481, 1075.000
1431.669, 1080.000
1432.857, 1104.000
1434.045, 1078.000
1435.233, 1095.000
1436.420, 1052.000
1437.608, 1099.000
1438.795, 1065.000
1439.982, 1088.000
1441.169, 1065.000
1442.355, 1081.000
1443.542, 1091.000
1444.728, 1098.000
1445.914, 1084.000
1447.100, 1090.000
1448.286, 1079.000
1449.472, 1104.000
1450.657, 1109.000
1451.842, 1113.000
1453.027, 1072.000
1454.212, 1083.000
1455.397, 1114.000
1456.581, 1082.000
1457.766, 1112.000
1458.950, 1073.000
1460.134, 1095.000
1461.318, 1119.000
1462.501, 1084.000
1463.685, 1121.000
1464.868, 1110.000
1466.051, 1094.000
1467.234, 1097.000
1468.417, 1096.794
1469.600, 1079.000
1470.782, 1105.000
1471.965, 1100.000
1473.147, 1090.000
1474.329, 1109.000
1475.510, 1078.000
1476.692, 1082.000
1477.873, 1111.000
1479.055, 1073.000
1480.236, 1129.000
1481.416, 1111.000
1482.597, 1084.000
1483.778, 1098.000
1484.958, 1088.000
1486.138, 1079.000
1487.318, 1084.093
1488.498, 1099.000
1489.678, 1097.000
1490.857, 1099.000
1492.037, 1102.403
1493.216, 1100.007
1494.395, 1111.000
1495.574, 1099.000
1496.752, 1121.000
1497.931, 1125.000
1499.109, 1116.000
1500.287, 1124.000
1501.465, 1074.000
1502.643, 1094.000
1503.820, 1062.000
1504.998, 1114.000
1506.175, 1103.000
1507.352, 1118.000
1508.529, 1139.000
1509.706, 1102.000
1510.882, 1106.000
1512.059, 1099.000
1513.235, 1095.000
1514.411, 1102.000
1515.587, 1089.000
1516.762, 1092.000
1517.938, 1097.000
1519.113, 1111.000
1520.288, 1109.851
1521.463, 1081.000
1522.638, 1117.000
1523.813, 1107.000
##END=



