##NAMES=Pyrophyllite
##RRUFFID=R050051
##IDEAL CHEMISTRY=Al_2_Si_4_O_10_(OH)_2_
##LOCALITY=Cottonstone Mountain, Mecklenburg County, North Carolina, USA
##OWNER=RRUFF
##SOURCE=University of Arizona Mineral Museum
##DESCRIPTION=Radiating lamellar aggregates
##STATUS=The identification of this mineral has been confirmed by X-ray diffraction and chemical analysis
##URL=rruff.info/R050051
##MEASURED CHEMISTRY=(Al_.991_Fe_.008_Mg_.001_)_2_Si_4_O_10_(OH)_2_
119.813, 14563.000
121.203, 14752.000
122.592, 14698.000
123.981, 14739.000
125.369, 15013.000
126.758, 14940.000
128.146, 15194.000
129.534, 15076.000
130.922, 15422.000
132.309, 15308.000
133.696, 15545.000
135.083, 15403.000
136.470, 15827.000
137.857, 15706.000
139.243, 15894.000
140.630, 15854.000
142.016, 15945.000
143.401, 16103.000
144.787, 16183.000
146.172, 16270.000
147.557, 16364.000
148.942, 16347.000
150.327, 16326.000
151.711, 16402.000
153.096, 16543.000
154.480, 16738.000
155.863, 16579.000
157.247, 16763.000
158.630, 16973.000
160.013, 16845.000
161.396, 16988.000
162.779, 17040.000
164.161, 17098.000
165.544, 17198.000
166.926, 17421.000
168.308, 17283.000
169.689, 17489.000
171.070, 17476.000
172.452, 17807.000
173.833, 17713.000
175.213, 17769.000
176.594, 17816.000
177.974, 17783.791
179.354, 17856.000
180.734, 17820.000
182.114, 17805.000
183.493, 17885.000
184.872, 17936.000
186.251, 17954.000
187.630, 18308.000
189.008, 18253.000
190.387, 18774.000
191.765, 19214.000
193.143, 19561.000
194.520, 19712.000
195.898, 19535.000
197.275, 19304.000
198.652, 18966.000
200.029, 18937.000
201.405, 18804.000
202.782, 18726.000
204.158, 18771.000
205.534, 18890.000
206.909, 19032.000
208.285, 19129.281
209.660, 19264.000
211.035, 19436.000
212.410, 19561.000
213.784, 19824.000
215.159, 19745.000
216.533, 19755.000
217.907, 19620.000
219.281, 19411.000
220.654, 19342.000
222.027, 19114.000
223.400, 19230.000
224.773, 19223.000
226.146, 19394.000
227.518, 19359.000
228.891, 19309.000
230.263, 19210.000
231.634, 19418.000
233.006, 19512.000
234.377, 19406.000
235.748, 19446.000
237.119, 19529.000
238.490, 19462.000
239.860, 19752.000
241.231, 19478.000
242.601, 19782.000
243.970, 19822.000
245.340, 19824.000
246.709, 19944.000
248.079, 19840.000
249.448, 20089.000
250.816, 19984.000
252.185, 20235.000
253.553, 20466.000
254.921, 20814.000
256.289, 21519.000
257.657, 22268.000
259.024, 23689.000
260.391, 24709.000
261.758, 24778.000
263.125, 23721.000
264.492, 22594.000
265.858, 21785.000
267.224, 21256.000
268.590, 21084.000
269.956, 20763.000
271.321, 20816.000
272.687, 20810.000
274.052, 20701.000
275.416, 20640.000
276.781, 20923.000
278.146, 20770.000
279.510, 20658.000
280.874, 20992.000
282.237, 20942.000
283.601, 21038.000
284.964, 20984.000
286.327, 20861.000
287.690, 21145.000
289.053, 21170.000
290.416, 21172.000
291.778, 21342.000
293.140, 21193.000
294.502, 21450.000
295.863, 21230.000
297.225, 21442.000
298.586, 21360.000
299.947, 21370.000
301.308, 21467.000
302.668, 21363.000
304.029, 21331.000
305.389, 21662.000
306.749, 21644.000
308.108, 21529.000
309.468, 21874.000
310.827, 21641.000
312.186, 21797.000
313.545, 21788.000
314.903, 22002.000
316.262, 21946.000
317.620, 21796.000
318.978, 21966.000
320.336, 22012.000
321.693, 22104.000
323.051, 22201.000
324.408, 22206.000
325.765, 21890.000
327.121, 22407.000
328.478, 22086.000
329.834, 22119.000
331.190, 22426.000
332.546, 22464.000
333.902, 22360.000
335.257, 22556.000
336.612, 22388.000
337.967, 22568.000
339.322, 22656.000
340.677, 22617.000
342.031, 22836.000
343.385, 22598.000
344.739, 22813.000
346.093, 22756.000
347.446, 22639.000
348.799, 22907.000
350.153, 22957.000
351.505, 23116.000
352.858, 22886.000
354.210, 23065.000
355.563, 23209.000
356.915, 22916.000
358.267, 23253.000
359.618, 23221.000
360.969, 23341.000
362.321, 23419.000
363.672, 23401.000
365.022, 23470.000
366.373, 23444.000
367.723, 23439.000
369.073, 23601.000
370.423, 23561.000
371.773, 23532.000
373.122, 23373.000
374.471, 23500.000
375.821, 23856.000
377.169, 23593.000
378.518, 23939.000
379.866, 23643.000
381.215, 23890.000
382.563, 23996.000
383.910, 23896.000
385.258, 23765.000
386.605, 24027.000
387.952, 24074.000
389.299, 23836.000
390.646, 24040.000
391.992, 23926.000
393.339, 23964.000
394.685, 24241.000
396.031, 23982.000
397.376, 24320.000
398.722, 24137.000
400.067, 24284.000
401.412, 24088.000
402.757, 24332.000
404.101, 24444.000
405.446, 24310.000
406.790, 24118.000
408.134, 24417.000
409.478, 24482.000
410.821, 24468.000
412.165, 24742.000
413.508, 24322.000
414.851, 24765.000
416.193, 24729.000
417.536, 24513.000
418.878, 24562.000
420.220, 24846.000
421.562, 24817.000
422.904, 24929.598
424.245, 24803.000
425.586, 25068.000
426.927, 24969.000
428.268, 25093.000
429.609, 24952.000
430.949, 24936.000
432.289, 25333.000
433.629, 25267.000
434.969, 25223.000
436.309, 25408.000
437.648, 25125.000
438.987, 25596.000
440.326, 25414.000
441.665, 25238.000
443.003, 25308.000
444.342, 25695.000
445.680, 25340.000
447.018, 25474.000
448.355, 25589.000
449.693, 25344.000
451.030, 25469.000
452.367, 25463.000
453.704, 25818.000
455.041, 25409.000
456.377, 25634.000
457.713, 25642.000
459.049, 25580.000
460.385, 25586.000
461.721, 25744.000
463.056, 25944.000
464.391, 25957.000
465.726, 25873.000
467.061, 26278.000
468.395, 26056.000
469.730, 26070.000
471.064, 26304.000
472.398, 26022.000
473.731, 26490.000
475.065, 25935.000
476.398, 26042.000
477.731, 26289.000
479.064, 26370.000
480.397, 26243.000
481.729, 26260.000
483.062, 26271.410
484.394, 26306.000
485.725, 26344.000
487.057, 26326.000
488.389, 26460.000
489.720, 26553.000
491.051, 26250.000
492.382, 26534.000
493.712, 26426.000
495.043, 26619.000
496.373, 26438.000
497.703, 26452.000
499.032, 26491.000
500.362, 26740.000
501.691, 26771.000
503.020, 26852.000
504.349, 26596.000
505.678, 27136.000
507.007, 26899.000
508.335, 26833.000
509.663, 27073.000
510.991, 26916.000
512.319, 27108.000
513.646, 27052.000
514.973, 27029.000
516.300, 27126.000
517.627, 27225.000
518.954, 27232.137
520.280, 27166.000
521.607, 27305.000
522.933, 27304.000
524.259, 27337.000
525.584, 27414.000
526.910, 27413.016
528.235, 27476.000
529.560, 27460.000
530.885, 27617.000
532.209, 27656.875
533.534, 27669.801
534.858, 27666.000
536.182, 27702.000
537.506, 27658.000
538.829, 27700.000
540.152, 27833.000
541.476, 27584.000
542.799, 28021.000
544.121, 27395.000
545.444, 27864.000
546.766, 27912.000
548.088, 27818.000
549.410, 27851.000
550.732, 27984.000
552.053, 28144.000
553.375, 28116.000
554.696, 28219.684
556.017, 28108.000
557.337, 28294.000
558.658, 28209.000
559.978, 28241.000
561.298, 28142.000
562.618, 28416.000
563.938, 27998.000
565.257, 28401.000
566.576, 28436.000
567.895, 28168.000
569.214, 28504.000
570.533, 28709.000
571.851, 28442.000
573.170, 28371.000
574.488, 28700.000
575.805, 28629.000
577.123, 28544.000
578.440, 28459.000
579.758, 28575.000
581.075, 28993.000
582.391, 28670.000
583.708, 29030.000
585.024, 28892.000
586.341, 28809.000
587.657, 28984.000
588.972, 29168.000
590.288, 29199.000
591.603, 28924.000
592.918, 28795.000
594.233, 29113.000
595.548, 29298.000
596.863, 29269.000
598.177, 29027.000
599.491, 29370.000
600.805, 29294.000
602.119, 29472.000
603.432, 29344.000
604.746, 29533.000
606.059, 29546.000
607.372, 29512.000
608.685, 29413.000
609.997, 29468.615
611.309, 29494.000
612.621, 29611.000
613.933, 29597.000
615.245, 29853.000
616.557, 29756.000
617.868, 29864.000
619.179, 30094.000
620.490, 30009.000
621.801, 29627.000
623.111, 30282.000
624.421, 29877.000
625.731, 30158.000
627.041, 29670.000
628.351, 30323.000
629.660, 29985.000
630.970, 30095.000
632.279, 30557.000
633.588, 30161.000
634.896, 30221.000
636.205, 30185.000
637.513, 30401.000
638.821, 30379.000
640.129, 30410.000
641.437, 30635.000
642.744, 30597.000
644.051, 30521.000
645.358, 30539.000
646.665, 30688.000
647.972, 30673.000
649.278, 30624.000
650.584, 30714.000
651.890, 30488.000
653.196, 31155.000
654.502, 30913.000
655.807, 30958.000
657.113, 30629.000
658.418, 30906.000
659.722, 31217.000
661.027, 30941.000
662.331, 31009.000
663.636, 30977.000
664.940, 31368.000
666.244, 30830.000
667.547, 31337.000
668.851, 31082.000
670.154, 31400.000
671.457, 31171.000
672.760, 31297.000
674.062, 31635.000
675.365, 31280.000
676.667, 31232.000
677.969, 31507.000
679.271, 31590.000
680.572, 31661.000
681.874, 31542.000
683.175, 31797.000
684.476, 31859.000
685.777, 31617.000
687.077, 31746.000
688.378, 31816.000
689.678, 32156.000
690.978, 32158.000
692.278, 32064.000
693.577, 31524.000
694.877, 32522.000
696.176, 32192.000
697.475, 32650.000
698.774, 32448.000
700.072, 33056.000
701.371, 33155.000
702.669, 33408.000
703.967, 33346.000
705.265, 33992.000
706.562, 34454.000
707.860, 34196.000
709.157, 33648.000
710.454, 33900.000
711.751, 33169.000
713.047, 33405.000
714.344, 32856.000
715.640, 33184.000
716.936, 32705.000
718.232, 32897.000
719.527, 33241.000
720.823, 32931.000
722.118, 32953.000
723.413, 33234.000
724.708, 32950.000
726.002, 32961.000
727.297, 33314.000
728.591, 32800.000
729.885, 33078.000
731.179, 33517.000
732.472, 33165.000
733.766, 33022.000
735.059, 33084.000
736.352, 33063.000
737.645, 33354.000
738.937, 33704.000
740.230, 33570.000
741.522, 33200.000
742.814, 33449.000
744.106, 33549.000
745.397, 33651.000
746.689, 33551.000
747.980, 33326.000
749.271, 33748.000
750.562, 33619.000
751.853, 33832.000
753.143, 33631.000
754.433, 33949.000
755.723, 33832.000
757.013, 33677.000
758.303, 34112.000
759.592, 33718.000
760.881, 33913.000
762.170, 33845.000
763.459, 34212.000
764.748, 34054.000
766.036, 34081.000
767.325, 34593.000
768.613, 33875.000
769.901, 34461.000
771.188, 34552.000
772.476, 34195.000
773.763, 34573.000
775.050, 34105.000
776.337, 34426.000
777.624, 34251.000
778.910, 34688.000
780.196, 34747.000
781.482, 34752.000
782.768, 34580.000
784.054, 34539.000
785.339, 34749.000
786.625, 34835.000
787.910, 34604.000
789.195, 34910.000
790.479, 34922.000
791.764, 34713.000
793.048, 35097.000
794.332, 34934.000
795.616, 35233.000
796.900, 35149.000
798.183, 35210.000
799.467, 34836.000
800.750, 35319.000
802.033, 35315.000
803.316, 35117.000
804.598, 35741.000
805.880, 34905.000
807.163, 35729.000
808.445, 35723.000
809.726, 35596.000
811.008, 35685.000
812.289, 36136.000
813.570, 35842.000
814.851, 36112.000
816.132, 35986.000
817.413, 35900.000
818.693, 35948.000
819.973, 35982.000
821.253, 35893.000
822.533, 35888.000
823.813, 36137.000
825.092, 36115.000
826.371, 36163.000
827.650, 36120.000
828.929, 36104.000
830.208, 36101.582
831.486, 36120.590
832.764, 36089.000
834.042, 36293.000
835.320, 36354.000
836.598, 36651.000
837.875, 36689.000
839.152, 36584.000
840.429, 36904.000
841.706, 37080.000
842.983, 36758.000
844.259, 36748.000
845.536, 36980.000
846.812, 36672.000
848.088, 36851.000
849.363, 36580.000
850.639, 37085.000
851.914, 37048.000
853.189, 36700.000
854.464, 37018.000
855.739, 37238.000
857.013, 37526.000
858.288, 37528.367
859.562, 37091.000
860.836, 37329.000
862.110, 37564.000
863.383, 37200.000
864.656, 37636.000
865.930, 37408.000
867.203, 37440.000
868.475, 37720.000
869.748, 37678.000
871.020, 37364.000
872.292, 37836.000
873.564, 37675.000
874.836, 37955.000
876.108, 37649.000
877.379, 37717.000
878.650, 38016.000
879.922, 38211.000
881.192, 38072.000
882.463, 38062.000
883.733, 38004.000
885.004, 38170.000
886.274, 38067.000
887.544, 38104.000
888.813, 38526.000
890.083, 38124.000
891.352, 38219.000
892.621, 38696.000
893.890, 38422.000
895.159, 38534.000
896.427, 38538.000
897.695, 38443.000
898.964, 38580.664
900.232, 38493.000
901.499, 38744.000
902.767, 38796.000
904.034, 38874.000
905.301, 38698.000
906.568, 38884.000
907.835, 38878.059
909.102, 39080.000
910.368, 39074.000
911.634, 39118.000
912.900, 39356.000
914.166, 39159.000
915.432, 39721.000
916.697, 39229.000
917.962, 39091.000
919.227, 39650.000
920.492, 39536.000
921.757, 39556.000
923.021, 39667.000
924.285, 39616.000
925.550, 39835.000
926.813, 39564.000
928.077, 39961.000
929.341, 39800.000
930.604, 39733.000
931.867, 40052.000
933.130, 39674.000
934.393, 39764.000
935.655, 40241.000
936.918, 39610.000
938.180, 40372.000
939.442, 40141.000
940.703, 40102.000
941.965, 40387.000
943.226, 40260.000
944.488, 40193.000
945.749, 40300.000
947.009, 40456.000
948.270, 40492.000
949.530, 40586.000
950.791, 40525.000
952.051, 40660.000
953.311, 40529.000
954.570, 40346.000
955.830, 40935.000
957.089, 40883.000
958.348, 40757.000
959.607, 40835.000
960.866, 40808.828
962.124, 40662.000
963.383, 40850.000
964.641, 41040.000
965.899, 41002.000
967.156, 41120.000
968.414, 41124.000
969.671, 41122.000
970.928, 41240.000
972.185, 41096.000
973.442, 41244.000
974.699, 41251.000
975.955, 41299.000
977.211, 41630.000
978.468, 41276.000
979.723, 41690.000
980.979, 41326.000
982.234, 41354.000
983.490, 42142.000
984.745, 41280.000
986.000, 41901.000
987.254, 41849.000
988.509, 41549.000
989.763, 42080.000
991.017, 41850.000
992.271, 41785.000
993.525, 41984.000
994.779, 41946.000
996.032, 42100.000
997.285, 42168.000
998.538, 42344.000
999.791, 41776.000
1001.044, 42531.000
1002.296, 42094.000
1003.548, 42611.000
1004.800, 42446.000
1006.052, 42352.000
1007.304, 42509.000
1008.555, 42216.000
1009.807, 42742.000
1011.058, 42650.000
1012.309, 42696.000
1013.559, 42875.000
1014.810, 42689.000
1016.060, 42840.000
1017.310, 42916.000
1018.560, 42952.000
1019.810, 42730.000
1021.060, 42976.000
1022.309, 43236.000
1023.558, 42984.000
1024.807, 43394.000
1026.056, 43074.000
1027.305, 43232.000
1028.553, 43341.000
1029.801, 43686.000
1031.049, 43533.000
1032.297, 43267.000
1033.545, 43619.000
1034.793, 43909.000
1036.040, 43608.000
1037.287, 43592.000
1038.534, 43470.000
1039.781, 43520.992
1041.027, 44285.000
1042.274, 43732.000
1043.520, 44086.000
1044.766, 44170.000
1046.012, 43953.000
1047.257, 44075.000
1048.503, 44424.000
1049.748, 44560.000
1050.993, 44558.242
1052.238, 44508.000
1053.483, 44480.000
1054.727, 44538.926
1055.971, 44261.000
1057.216, 44680.000
1058.459, 44553.000
1059.703, 44632.000
##END=



