##NAMES=Renierite
##RRUFFID=R050428
##IDEAL CHEMISTRY=(Cu^1+^,Cu^2+^Zn^2+^)_11_(Fe^2+^,Fe^3+^)_4_(Ge^4+^,As^5+^)_2_S^2-^_16_
##LOCALITY=Tsumeb mine, Tsumeb, Otavi District, Oshikoto, Namibia
##OWNER=RRUFF
##SOURCE=University of Arizona Mineral Museum
##DESCRIPTION=Reddish bronze metallic massive, associated with siderite.
##STATUS=The identification of this mineral has been confirmed by X-ray diffraction and chemical analysis
##URL=rruff.info/R050428
##MEASURED CHEMISTRY=(Cu_10.73_Zn_0.28_)_Σ=11_Fe_4.00_(Ge_1.35_As_0.65_)_Σ=2_S_16.00_
182.114, 8962.000
183.493, 8877.000
184.872, 8860.000
186.251, 8928.000
187.630, 8853.000
189.008, 8857.000
190.387, 8738.000
191.765, 8816.000
193.143, 8785.000
194.520, 8825.000
195.898, 8936.000
197.275, 8890.000
198.652, 8951.000
200.029, 8881.000
201.405, 8989.000
202.782, 8953.000
204.158, 8923.000
205.534, 8915.000
206.909, 8899.000
208.285, 9110.000
209.660, 8924.000
211.035, 8811.000
212.410, 8871.000
213.784, 8607.000
215.159, 8650.000
216.533, 8612.000
217.907, 8706.000
219.281, 8778.000
220.654, 8686.000
222.027, 8704.000
223.400, 8735.000
224.773, 8717.951
226.146, 8767.166
227.518, 8791.000
228.891, 8807.000
230.263, 8914.000
231.634, 8862.000
233.006, 8913.000
234.377, 8929.000
235.748, 8809.000
237.119, 9138.000
238.490, 9132.000
239.860, 9000.000
241.231, 9200.290
242.601, 9092.921
243.970, 9329.000
245.340, 9121.000
246.709, 9146.000
248.079, 9324.000
249.448, 9260.000
250.816, 9370.000
252.185, 9684.000
253.553, 9504.000
254.921, 9475.000
256.289, 9536.000
257.657, 9749.000
259.024, 9817.000
260.391, 9872.000
261.758, 9984.000
263.125, 10098.000
264.492, 10140.000
265.858, 10347.000
267.224, 10447.000
268.590, 10573.000
269.956, 10706.633
271.321, 10778.000
272.687, 10920.000
274.052, 10953.000
275.416, 11030.943
276.781, 11151.000
278.146, 11218.000
279.510, 11234.000
280.874, 11161.000
282.237, 11328.000
283.601, 11159.000
284.964, 11356.000
286.327, 11134.000
287.690, 11128.000
289.053, 11243.000
290.416, 11063.000
291.778, 10970.000
293.140, 11104.000
294.502, 10945.000
295.863, 10954.000
297.225, 11010.000
298.586, 11046.000
299.947, 11300.000
301.308, 11663.000
302.668, 12192.000
304.029, 12839.000
305.389, 13495.000
306.749, 14289.000
308.108, 14912.000
309.468, 14822.000
310.827, 14376.000
312.186, 13448.000
313.545, 12635.000
314.903, 11873.000
316.262, 11433.000
317.620, 11158.000
318.978, 10891.000
320.336, 10809.000
321.693, 10665.000
323.051, 10643.000
324.408, 10662.000
325.765, 10663.000
327.121, 10652.496
328.478, 10764.000
329.834, 10677.000
331.190, 10768.000
332.546, 10872.000
333.902, 11274.000
335.257, 11225.000
336.612, 11713.000
337.967, 11995.000
339.322, 12656.000
340.677, 13156.000
342.031, 13776.000
343.385, 14484.000
344.739, 15276.000
346.093, 15684.767
347.446, 16232.000
348.799, 16396.000
350.153, 16727.000
351.505, 16750.000
352.858, 16417.000
354.210, 16005.000
355.563, 15381.000
356.915, 14615.000
358.267, 13881.000
359.618, 13266.000
360.969, 12806.000
362.321, 12191.000
363.672, 11892.000
365.022, 11529.000
366.373, 11364.000
367.723, 11171.000
369.073, 10860.000
370.423, 10770.000
371.773, 10787.000
373.122, 10968.000
374.471, 10516.000
375.821, 10626.000
377.169, 10872.000
378.518, 10706.000
379.866, 11039.000
381.215, 10910.000
382.563, 10817.000
383.910, 10929.000
385.258, 10606.000
386.605, 10576.169
387.952, 10664.000
389.299, 10289.000
390.646, 9886.000
391.992, 9706.720
393.339, 9475.771
394.685, 9390.000
396.031, 9249.000
397.376, 9122.000
398.722, 9105.000
400.067, 8942.000
401.412, 9034.000
402.757, 8880.000
404.101, 8942.000
405.446, 9068.000
406.790, 8987.000
408.134, 8811.000
409.478, 8801.000
410.821, 8662.000
412.165, 8656.000
413.508, 8546.000
414.851, 8396.000
416.193, 8481.000
417.536, 8415.000
418.878, 8267.000
420.220, 8370.000
421.562, 8380.000
422.904, 8381.000
424.245, 8218.000
425.586, 8258.000
426.927, 8256.000
428.268, 8225.000
429.609, 8258.000
430.949, 8110.000
432.289, 8066.000
433.629, 8173.000
434.969, 8241.000
436.309, 8058.000
437.648, 8183.000
438.987, 8118.000
440.326, 8116.000
441.665, 8081.000
443.003, 8026.000
444.342, 7965.000
445.680, 8133.000
447.018, 8003.000
448.355, 8039.000
449.693, 8068.000
451.030, 8042.000
452.367, 8025.000
453.704, 7987.000
455.041, 7989.000
456.377, 7881.000
457.713, 8012.000
459.049, 7892.000
460.385, 7974.000
461.721, 7943.000
463.056, 7926.000
464.391, 7998.000
465.726, 7907.000
467.061, 7902.000
468.395, 8006.000
469.730, 7813.000
471.064, 7900.000
472.398, 8023.000
473.731, 7835.000
475.065, 7960.000
476.398, 7824.000
477.731, 7910.000
479.064, 7765.000
480.397, 7896.000
481.729, 7934.000
483.062, 7915.000
484.394, 7913.000
485.725, 7866.000
487.057, 7896.000
488.389, 7875.345
489.720, 7874.000
491.051, 7878.000
492.382, 7810.000
493.712, 7828.000
495.043, 7822.000
496.373, 7783.000
497.703, 7916.000
499.032, 7734.000
500.362, 7796.000
501.691, 7942.000
503.020, 7781.000
504.349, 7843.302
505.678, 7777.736
507.007, 7854.000
508.335, 7649.000
509.663, 7808.000
510.991, 7801.000
512.319, 7797.000
513.646, 7878.000
514.973, 7758.000
516.300, 7797.000
517.627, 7742.000
518.954, 7888.000
520.280, 7818.000
521.607, 7714.000
522.933, 7859.000
524.259, 7895.000
525.584, 7937.000
526.910, 7916.697
528.235, 7640.000
529.560, 7849.000
530.885, 7731.000
532.209, 7811.000
533.534, 7795.000
534.858, 7638.000
536.182, 7865.000
537.506, 7733.000
538.829, 7847.000
540.152, 7730.000
541.476, 7778.000
542.799, 7798.000
544.121, 7837.000
545.444, 7748.000
546.766, 7833.000
548.088, 7712.000
549.410, 7776.000
550.732, 7730.000
552.053, 7816.000
553.375, 7734.000
554.696, 7816.000
556.017, 7713.000
557.337, 7698.000
558.658, 7708.770
559.978, 7807.000
561.298, 7736.000
562.618, 7711.000
563.938, 7798.000
565.257, 7793.000
566.576, 7727.000
567.895, 7766.000
569.214, 7685.000
570.533, 7752.000
571.851, 7872.000
573.170, 7828.000
574.488, 7863.612
575.805, 7800.000
577.123, 7819.000
578.440, 7734.000
579.758, 7688.000
581.075, 7725.000
582.391, 7779.000
583.708, 7733.000
585.024, 7869.000
586.341, 7730.000
587.657, 7824.000
588.972, 7892.000
590.288, 7774.000
591.603, 7865.000
592.918, 7932.000
594.233, 7732.000
595.548, 7786.000
596.863, 7987.000
598.177, 7847.000
599.491, 7768.000
600.805, 7808.000
602.119, 7869.000
603.432, 7876.000
604.746, 7863.000
606.059, 7849.000
607.372, 7952.000
608.685, 7899.000
609.997, 7919.000
611.309, 7920.000
612.621, 7904.000
613.933, 7841.000
615.245, 7896.000
616.557, 7936.000
617.868, 8011.000
619.179, 8002.000
620.490, 7996.000
621.801, 8036.000
623.111, 8018.000
624.421, 8128.000
625.731, 7932.000
627.041, 8159.000
628.351, 7931.000
629.660, 8166.000
630.970, 7958.000
632.279, 8235.000
633.588, 8234.000
634.896, 8009.000
636.205, 8202.000
637.513, 7988.000
638.821, 8182.000
640.129, 8094.000
641.437, 8166.000
642.744, 8202.000
644.051, 8206.000
645.358, 8247.842
646.665, 8232.000
647.972, 8274.000
649.278, 8259.000
650.584, 8245.000
651.890, 8234.000
653.196, 8282.000
654.502, 8266.000
655.807, 8225.000
657.113, 8406.000
658.418, 8151.000
659.722, 8165.000
661.027, 8326.000
662.331, 8160.000
663.636, 8172.000
664.940, 8341.000
666.244, 8279.000
667.547, 8275.000
668.851, 8172.000
670.154, 8084.000
671.457, 8246.000
672.760, 8114.000
674.062, 8216.000
675.365, 8390.000
676.667, 8229.000
677.969, 8308.000
679.271, 8245.000
680.572, 8342.000
681.874, 8330.000
683.175, 8193.000
684.476, 8325.000
685.777, 8445.000
687.077, 8377.000
688.378, 8409.000
689.678, 8378.000
690.978, 8359.000
692.278, 8473.000
693.577, 8473.000
694.877, 8484.915
696.176, 8545.000
697.475, 8478.000
698.774, 8469.000
700.072, 8445.000
701.371, 8433.000
702.669, 8399.000
703.967, 8406.000
705.265, 8258.000
706.562, 8304.000
707.860, 8490.000
709.157, 8310.000
710.454, 8180.000
711.751, 8577.000
713.047, 8327.000
714.344, 8322.000
715.640, 8256.000
716.936, 8231.000
718.232, 8289.000
719.527, 8125.000
720.823, 8225.513
722.118, 8438.000
723.413, 8285.000
724.708, 8242.000
726.002, 8171.000
727.297, 8146.000
728.591, 8406.000
729.885, 8122.000
731.179, 8375.000
732.472, 8258.000
733.766, 8124.000
735.059, 7931.339
736.352, 8163.281
737.645, 8292.155
738.937, 8323.501
740.230, 7965.201
741.522, 8110.048
742.814, 8053.257
744.106, 7988.198
745.397, 8203.863
746.689, 7902.238
747.980, 8113.451
749.271, 8119.950
750.562, 8079.000
751.853, 8015.000
753.143, 8133.000
754.433, 8024.000
755.723, 8133.000
757.013, 8026.000
758.303, 8046.000
759.592, 8244.000
760.881, 8064.000
762.170, 8041.000
763.459, 8371.000
764.748, 8489.000
766.036, 8048.000
767.325, 8039.000
768.613, 8152.000
769.901, 7950.000
771.188, 8210.000
772.476, 7983.000
773.763, 7954.000
775.050, 8039.000
776.337, 8260.000
777.624, 8075.000
778.910, 8124.000
780.196, 8094.755
781.482, 7890.000
782.768, 7988.000
784.054, 7816.000
785.339, 7774.000
786.625, 7904.000
787.910, 7884.000
789.195, 7843.000
790.479, 7907.000
791.764, 7897.000
793.048, 7796.000
794.332, 7872.000
795.616, 7781.000
796.900, 7947.000
798.183, 7781.000
799.467, 7830.000
800.750, 7698.000
802.033, 7776.000
803.316, 7785.000
804.598, 7721.000
805.880, 7924.000
807.163, 7639.000
808.445, 7898.000
809.726, 7827.000
811.008, 7647.000
812.289, 7862.000
813.570, 7829.000
814.851, 7824.000
816.132, 7806.000
817.413, 7763.000
818.693, 7786.000
819.973, 7688.000
821.253, 7828.000
822.533, 7889.000
823.813, 7787.000
825.092, 7973.000
826.371, 7766.000
827.650, 7905.000
828.929, 7815.000
830.208, 7792.000
831.486, 7854.000
832.764, 7845.000
834.042, 7822.000
835.320, 7872.000
836.598, 7827.000
837.875, 7805.000
839.152, 7900.000
840.429, 7886.000
841.706, 7839.000
842.983, 7944.000
844.259, 7836.000
845.536, 7813.000
846.812, 7849.000
848.088, 7754.000
849.363, 7854.000
850.639, 7880.000
851.914, 7894.000
853.189, 7952.000
854.464, 7861.000
855.739, 7841.000
857.013, 7922.000
858.288, 7865.000
859.562, 7931.000
860.836, 7758.000
862.110, 7882.000
863.383, 7885.000
864.656, 7779.000
865.930, 7996.000
867.203, 7843.000
868.475, 7863.000
869.748, 7918.000
871.020, 7923.000
872.292, 7860.000
873.564, 7948.000
874.836, 7907.000
876.108, 7928.000
877.379, 7985.000
878.650, 7900.000
879.922, 7975.000
881.192, 7967.000
882.463, 7885.000
883.733, 7940.000
885.004, 7931.000
886.274, 7905.000
887.544, 7920.000
888.813, 7900.000
890.083, 7914.247
891.352, 7964.000
892.621, 7932.000
893.890, 8027.000
895.159, 8017.000
896.427, 8016.000
897.695, 7936.000
898.964, 7957.000
900.232, 8062.000
901.499, 7914.000
902.767, 7940.000
904.034, 8031.000
905.301, 8009.000
906.568, 7907.000
907.835, 8074.000
909.102, 8021.000
910.368, 8071.000
911.634, 8083.000
912.900, 8084.000
914.166, 8104.932
915.432, 8018.000
916.697, 8086.000
917.962, 8006.000
919.227, 7926.000
920.492, 7980.056
921.757, 8114.000
923.021, 8060.000
924.285, 8031.000
925.550, 8145.000
926.813, 8162.000
928.077, 8092.000
929.341, 8096.000
930.604, 8076.000
931.867, 8037.000
933.130, 8056.000
934.393, 8061.086
935.655, 8069.000
936.918, 8135.000
938.180, 8128.000
939.442, 8210.000
940.703, 8087.000
941.965, 8033.000
943.226, 8218.000
944.488, 8110.000
945.749, 8095.000
947.009, 8064.000
948.270, 8044.316
949.530, 8069.000
950.791, 8082.000
952.051, 8170.000
953.311, 8256.000
954.570, 8259.011
955.830, 8280.668
957.089, 8278.000
958.348, 8230.000
959.607, 8204.000
960.866, 8146.000
962.124, 8247.000
963.383, 8182.000
964.641, 8141.000
965.899, 8233.000
967.156, 8161.932
968.414, 8222.198
969.671, 8142.000
970.928, 8243.000
972.185, 8276.000
973.442, 8158.000
974.699, 8256.000
975.955, 8382.000
977.211, 8331.956
978.468, 8205.000
979.723, 8220.000
980.979, 8187.510
982.234, 8302.000
983.490, 8146.000
984.745, 8376.000
986.000, 8258.000
987.254, 8283.000
988.509, 8353.000
989.763, 8230.000
991.017, 8305.000
992.271, 8354.000
993.525, 8362.000
994.779, 8321.000
996.032, 8384.000
997.285, 8375.000
998.538, 8406.000
999.791, 8409.000
1001.044, 8308.000
1002.296, 8467.000
1003.548, 8275.000
1004.800, 8395.000
1006.052, 8419.000
1007.304, 8418.000
1008.555, 8404.000
1009.807, 8364.000
1011.058, 8454.000
1012.309, 8448.000
1013.559, 8450.000
1014.810, 8519.000
1016.060, 8481.000
1017.310, 8420.431
1018.560, 8523.559
1019.810, 8586.950
1021.060, 8612.741
1022.309, 8488.304
1023.558, 8557.843
1024.807, 8549.645
1026.056, 8538.259
1027.305, 8635.100
1028.553, 8532.500
1029.801, 8617.000
1031.049, 8647.000
1032.297, 8692.000
1033.545, 8687.256
1034.793, 8590.000
1036.040, 8667.000
1037.287, 8650.000
1038.534, 8570.000
1039.781, 8641.000
1041.027, 8760.000
1042.274, 8778.000
1043.520, 8800.123
1044.766, 8723.000
1046.012, 8786.000
1047.257, 8715.000
1048.503, 8722.000
1049.748, 8664.000
1050.993, 8817.000
1052.238, 8720.000
1053.483, 8837.000
1054.727, 8815.000
1055.971, 8817.000
1057.216, 8774.000
1058.459, 8915.000
1059.703, 8848.000
1060.947, 8859.000
1062.190, 8762.000
1063.433, 8805.000
1064.676, 8854.000
1065.919, 8745.000
1067.162, 8790.000
1068.404, 8799.000
1069.646, 8908.000
1070.888, 8817.000
1072.130, 8769.000
1073.372, 8846.081
1074.613, 8833.000
1075.855, 8890.000
1077.096, 8912.000
1078.337, 8822.000
1079.578, 8844.000
1080.818, 8926.000
1082.059, 8838.000
1083.299, 8886.000
1084.539, 8784.000
1085.779, 8936.000
1087.018, 8918.000
1088.258, 8886.000
1089.497, 8832.000
1090.736, 8910.000
1091.975, 8851.710
1093.213, 8977.000
1094.452, 8880.000
1095.690, 8840.000
1096.928, 8987.000
1098.166, 8836.000
1099.404, 9033.000
1100.642, 8925.000
1101.879, 8942.000
1103.116, 8964.000
1104.353, 9099.000
1105.590, 8974.000
1106.827, 9032.000
1108.063, 8835.000
1109.299, 9015.000
1110.536, 8905.000
1111.771, 9012.000
1113.007, 9103.000
1114.243, 9039.000
1115.478, 9062.000
1116.713, 9049.654
1117.948, 9051.513
1119.183, 9063.740
1120.418, 9077.000
1121.652, 9096.000
1122.886, 9099.000
1124.120, 9146.000
1125.354, 9163.000
1126.588, 9142.000
1127.821, 9155.983
1129.055, 9157.000
1130.288, 9132.100
1131.521, 9184.000
1132.753, 9171.000
1133.986, 9129.000
1135.218, 9063.000
1136.450, 9113.000
1137.682, 9220.000
1138.914, 9108.000
1140.146, 9175.618
1141.377, 9130.000
1142.609, 9186.000
1143.840, 9176.000
1145.071, 9200.000
1146.301, 9232.000
1147.532, 9264.000
1148.762, 9179.000
1149.992, 9257.000
1151.222, 9266.000
1152.452, 9184.000
1153.682, 9297.000
1154.911, 9252.000
1156.140, 9298.000
1157.369, 9384.000
1158.598, 9339.000
1159.827, 9370.000
1161.055, 9294.000
1162.284, 9365.000
1163.512, 9338.000
1164.740, 9492.000
1165.967, 9307.000
1167.195, 9411.000
1168.422, 9283.000
1169.650, 9339.000
1170.877, 9395.000
1172.103, 9402.000
1173.330, 9318.000
1174.557, 9488.000
1175.783, 9419.000
1177.009, 9493.000
1178.235, 9444.000
1179.461, 9474.000
1180.686, 9475.000
1181.912, 9562.000
1183.137, 9480.000
1184.362, 9565.000
1185.587, 9544.000
1186.811, 9586.000
1188.036, 9530.000
1189.260, 9561.029
1190.484, 9515.000
1191.708, 9601.000
1192.932, 9627.000
1194.155, 9672.000
1195.378, 9616.000
1196.602, 9555.000
1197.825, 9611.000
1199.047, 9700.000
1200.270, 9639.000
1201.492, 9705.492
1202.715, 9674.718
1203.937, 9599.235
1205.159, 9731.745
1206.380, 9813.751
1207.602, 9847.997
1208.823, 9691.360
1210.044, 9781.189
1211.265, 9772.248
1212.486, 9759.255
1213.707, 9883.774
1214.927, 9754.886
1216.147, 9877.209
1217.367, 9899.253
1218.587, 9967.194
1219.807, 9935.752
1221.027, 9935.005
1222.246, 10033.659
1223.465, 10077.266
1224.684, 10034.369
1225.903, 10001.000
1227.121, 10035.000
1228.340, 10016.000
1229.558, 10060.000
1230.776, 10166.000
1231.994, 10145.000
1233.212, 10179.447
1234.429, 10003.000
1235.646, 10154.000
1236.864, 10096.000
1238.081, 10028.000
1239.297, 10252.000
1240.514, 10129.000
1241.730, 10187.000
1242.947, 10249.000
1244.163, 10283.000
1245.378, 10321.877
1246.594, 10325.825
1247.810, 10342.000
1249.025, 10335.000
1250.240, 10270.000
1251.455, 10321.000
1252.670, 10270.000
1253.885, 10331.000
1255.099, 10437.000
1256.313, 10396.000
1257.527, 10307.000
1258.741, 10321.000
1259.955, 10437.000
1261.168, 10562.000
1262.382, 10539.851
1263.595, 10502.000
1264.808, 10572.000
1266.021, 10572.000
1267.233, 10667.000
1268.446, 10630.000
1269.658, 10610.376
1270.870, 10625.603
1272.082, 10595.346
1273.294, 10613.000
1274.505, 10596.000
1275.716, 10630.000
1276.928, 10691.000
1278.139, 10716.000
1279.349, 10688.000
1280.560, 10797.000
1281.770, 10835.000
1282.981, 10779.000
1284.191, 10857.207
1285.401, 10844.000
1286.610, 10898.000
1287.820, 10883.000
1289.029, 10881.000
1290.239, 10903.000
1291.448, 10864.000
1292.656, 10935.000
1293.865, 10900.000
1295.073, 10894.000
1296.282, 10931.000
1297.490, 11006.000
1298.698, 11001.000
1299.906, 11095.000
1301.113, 11131.000
1302.320, 11079.000
1303.528, 11120.000
1304.735, 11173.000
1305.942, 11148.000
1307.148, 11174.000
1308.355, 11221.000
1309.561, 11330.000
1310.767, 11285.000
1311.973, 11400.000
1313.179, 11308.000
1314.384, 11586.000
1315.590, 11719.000
1316.795, 11567.000
1318.000, 11582.000
1319.205, 11524.000
1320.410, 11597.000
1321.614, 11623.000
1322.819, 11633.000
1324.023, 11714.000
1325.227, 11752.000
1326.431, 11798.000
1327.634, 11960.000
1328.838, 11976.000
1330.041, 12078.527
1331.244, 12015.000
1332.447, 12167.000
1333.650, 12251.000
1334.852, 12144.000
1336.055, 12193.000
1337.257, 12314.000
1338.459, 12341.000
1339.661, 12434.000
1340.862, 12485.000
1342.064, 12598.000
1343.265, 12523.000
1344.466, 12740.000
1345.667, 12732.289
1346.868, 12981.000
1348.068, 12810.000
1349.269, 12922.000
1350.469, 12935.000
1351.669, 12911.000
1352.869, 12977.000
1354.069, 13053.000
1355.268, 13034.000
1356.468, 13018.000
1357.667, 13142.000
1358.866, 13068.105
1360.065, 13103.000
1361.263, 13017.000
1362.462, 12980.000
1363.660, 12966.000
1364.858, 12915.000
1366.056, 13053.000
1367.254, 12854.000
1368.451, 12800.000
1369.649, 12933.000
1370.846, 12801.000
1372.043, 12794.000
1373.240, 12854.105
1374.436, 12811.742
1375.633, 12851.000
1376.829, 12864.000
1378.025, 12672.000
1379.221, 12708.000
1380.417, 12514.000
1381.613, 12763.000
1382.808, 12682.000
1384.003, 12645.000
1385.199, 12634.000
1386.393, 12612.000
1387.588, 12637.000
1388.783, 12517.000
1389.977, 12509.000
1391.171, 12604.000
1392.365, 12703.000
1393.559, 12467.000
1394.753, 12697.000
1395.946, 12653.000
1397.140, 12538.000
1398.333, 12602.000
1399.526, 12551.000
1400.719, 12650.000
1401.911, 12626.000
1403.104, 12641.000
1404.296, 12599.000
1405.488, 12471.000
1406.680, 12520.244
1407.872, 12511.040
1409.063, 12633.000
1410.255, 12499.000
1411.446, 12742.000
1412.637, 12544.000
1413.828, 12688.000
1415.018, 12570.905
1416.209, 12730.955
1417.399, 12823.727
1418.589, 12852.840
1419.779, 12627.634
1420.969, 12730.828
1422.159, 12702.415
1423.348, 12668.600
1424.537, 12818.010
1425.726, 12629.788
1426.915, 12776.293
1428.104, 12789.181
1429.293, 12863.222
1430.481, 12804.837
1431.669, 12787.353
1432.857, 12902.332
1434.045, 12943.965
1435.233, 12870.335
1436.420, 12948.253
1437.608, 12755.400
1438.795, 12800.152
1439.982, 12947.421
1441.169, 12880.444
1442.355, 12960.778
1443.542, 12985.011
1444.728, 12754.262
1445.914, 12966.942
1447.100, 12987.855
1448.286, 12811.862
1449.472, 13009.350
1450.657, 12860.497
1451.842, 12835.265
1453.027, 12903.064
1454.212, 12905.000
1455.397, 12793.000
1456.581, 12961.000
1457.766, 12821.000
1458.950, 12854.000
1460.134, 12975.000
1461.318, 12794.000
1462.501, 12945.000
1463.685, 12794.000
1464.868, 12810.000
1466.051, 12984.000
1467.234, 12964.000
1468.417, 12914.000
1469.600, 12821.000
1470.782, 12917.000
1471.965, 12874.000
1473.147, 12890.998
1474.329, 12907.000
1475.510, 12884.000
1476.692, 12914.000
1477.873, 12817.000
1479.055, 12945.000
1480.236, 13078.000
1481.416, 13008.000
1482.597, 13035.053
1483.778, 13124.000
1484.958, 12939.000
1486.138, 13016.000
1487.318, 13030.000
1488.498, 12992.000
1489.678, 13032.534
1490.857, 13027.000
1492.037, 13015.000
1493.216, 13029.000
1494.395, 12967.946
1495.574, 13139.000
1496.752, 12974.000
1497.931, 13145.000
1499.109, 13104.000
1500.287, 13080.000
1501.465, 13097.000
1502.643, 13182.000
1503.820, 13034.000
1504.998, 13130.000
1506.175, 13128.739
1507.352, 13354.000
##END=



