##NAMES=Stannite
##RRUFFID=R050187
##IDEAL CHEMISTRY=Cu^1+^_2_Fe^2+^Sn^4+^S^2-^_4_
##LOCALITY=Yaogangxian mine, Yizhang County, Hunan Province, China
##OWNER=RRUFF
##SOURCE=Marcus Origlieri and George Guanghua Liu
##DESCRIPTION=Bluish-black octahedron associated with fluorite and quartz. According to Kissin & Owens (1989), since 2a is significantly larger than c, this sample is stannite.
##STATUS=The identification of this mineral is confirmed by single-crystal X-ray diffraction and chemical analysis.
##URL=rruff.info/R050187
##MEASURED CHEMISTRY=Cu_2.00_(Fe_0.66_Zn_0.34_)Sn_1.00_S_4.00_
99.816, 3793.000
101.218, 3938.000
102.619, 3955.000
104.019, 4112.000
105.420, 4253.000
106.820, 4257.000
108.220, 4355.000
109.620, 4576.839
111.019, 4530.169
112.419, 4566.589
113.818, 4554.000
115.217, 4462.000
116.615, 4464.000
118.013, 4385.000
119.412, 4422.000
120.809, 4490.000
122.207, 4436.000
123.604, 4387.000
125.002, 4462.000
126.399, 4457.000
127.795, 4494.000
129.192, 4518.000
130.588, 4483.000
131.984, 4484.000
133.379, 4526.000
134.775, 4592.000
136.170, 4674.000
137.565, 4667.000
138.960, 4550.000
140.355, 4509.000
141.749, 4427.000
143.143, 4434.000
144.537, 4457.000
145.930, 4365.000
147.324, 4237.000
148.717, 4252.000
150.110, 4242.000
151.502, 4268.000
152.895, 4310.000
154.287, 4327.000
155.679, 4073.000
157.070, 3989.000
158.462, 3991.000
159.853, 3970.000
161.244, 3968.000
162.635, 3889.000
164.025, 3855.000
165.415, 3817.000
166.805, 3794.940
168.195, 3786.240
169.585, 3776.000
170.974, 3768.000
172.363, 3748.000
173.752, 3700.000
175.141, 3723.000
176.529, 3630.000
177.917, 3700.000
179.305, 3634.000
180.693, 3692.000
182.080, 3626.000
183.467, 3671.000
184.854, 3671.000
186.241, 3666.000
187.627, 3683.000
189.013, 3697.000
190.399, 3695.000
191.785, 3672.000
193.171, 3749.000
194.556, 3715.000
195.941, 3766.000
197.326, 3788.000
198.710, 3733.000
200.095, 3781.000
201.479, 3818.000
202.863, 3810.000
204.246, 3779.000
205.630, 3789.000
207.013, 3773.000
208.396, 3752.000
209.779, 3686.000
211.161, 3728.000
212.543, 3701.000
213.925, 3812.000
215.307, 3822.000
216.689, 3872.000
218.070, 3730.000
219.451, 3644.000
220.832, 3631.000
222.212, 3628.000
223.593, 3594.368
224.973, 3606.000
226.353, 3574.000
227.732, 3597.000
229.112, 3581.000
230.491, 3618.000
231.870, 3585.000
233.249, 3653.000
234.627, 3612.000
236.005, 3676.000
237.383, 3712.000
238.761, 3812.000
240.139, 3769.000
241.516, 3781.000
242.893, 3981.000
244.270, 3959.000
245.646, 4059.000
247.023, 4238.000
248.399, 4229.000
249.775, 4348.000
251.151, 4288.000
252.526, 4338.000
253.901, 4250.000
255.276, 4250.000
256.651, 4134.000
258.025, 3974.000
259.400, 4023.000
260.774, 4168.000
262.148, 3975.777
263.521, 4077.000
264.894, 3772.000
266.268, 3770.000
267.640, 3745.000
269.013, 3970.000
270.386, 4083.000
271.758, 4422.000
273.130, 4778.000
274.501, 5308.000
275.873, 6113.000
277.244, 7054.000
278.615, 8295.000
279.986, 9190.000
281.356, 9827.000
282.727, 10000.000
284.097, 9326.000
285.467, 8425.000
286.836, 7332.000
288.206, 6592.000
289.575, 6057.000
290.944, 5727.000
292.313, 5461.000
293.681, 5374.000
295.049, 5370.000
296.417, 5406.000
297.785, 5390.000
299.153, 5546.000
300.520, 5634.000
301.887, 5793.000
303.254, 6055.000
304.620, 6528.000
305.987, 7144.000
307.353, 8186.000
308.719, 9803.000
310.085, 11680.000
311.450, 15100.000
312.815, 18840.000
314.180, 23450.000
315.545, 27350.000
316.910, 29250.000
318.274, 28780.000
319.638, 24650.000
321.002, 19650.000
322.365, 14670.000
323.729, 11150.000
325.092, 8688.000
326.455, 7093.000
327.818, 6264.000
329.180, 5526.000
330.542, 5166.000
331.904, 4823.000
333.266, 4728.000
334.628, 4701.000
335.989, 4612.000
337.350, 4628.000
338.711, 4748.000
340.071, 4815.000
341.432, 4955.000
342.792, 4828.000
344.152, 4894.000
345.512, 4702.000
346.871, 4791.000
348.230, 4419.000
349.589, 4255.000
350.948, 4308.000
352.307, 4214.000
353.665, 4383.000
355.023, 4396.000
356.381, 4302.000
357.739, 4105.000
359.096, 3864.000
360.453, 3606.000
361.810, 3400.000
363.167, 3310.000
364.523, 3222.000
365.880, 3082.000
367.236, 3073.000
368.592, 3012.000
369.947, 2989.000
371.303, 2974.822
372.658, 2953.000
374.013, 2942.221
375.367, 2925.000
376.722, 2923.000
378.076, 2918.449
379.430, 2912.000
380.784, 2917.000
382.137, 2940.000
383.491, 2946.000
384.844, 2860.000
386.196, 2907.000
387.549, 2902.000
388.901, 2916.000
390.254, 2937.000
391.606, 2931.551
392.957, 2891.000
394.309, 2935.000
395.660, 2915.000
397.011, 2918.000
398.362, 2853.000
399.712, 2928.000
401.063, 2858.000
402.413, 2928.000
403.763, 2856.000
405.112, 2843.000
406.462, 2938.000
407.811, 2889.000
409.160, 2863.000
410.509, 2909.000
411.857, 2880.000
413.206, 2857.000
414.554, 2843.000
415.902, 2940.000
417.249, 2875.000
418.597, 2907.000
419.944, 2859.000
421.291, 2876.000
422.638, 2889.000
423.984, 2859.000
425.330, 2892.000
426.676, 2911.000
428.022, 2872.000
429.368, 2866.000
430.713, 2875.000
432.058, 2931.000
433.403, 2836.000
434.748, 2869.000
436.092, 2896.000
437.437, 2826.000
438.781, 2891.000
440.124, 2843.000
441.468, 2860.000
442.811, 2877.000
444.154, 2908.000
445.497, 2881.000
446.840, 2878.000
448.182, 2866.000
449.525, 2887.000
450.867, 2890.000
452.208, 2905.000
453.550, 2907.132
454.891, 2884.000
456.232, 2912.000
457.573, 2902.000
458.914, 2912.000
460.254, 2866.000
461.594, 2944.000
462.934, 2998.000
464.274, 2980.000
465.614, 2953.000
466.953, 2939.000
468.292, 2989.000
469.631, 3012.000
470.969, 2956.000
472.308, 3048.000
473.646, 3026.000
474.984, 2993.000
476.322, 2944.000
477.659, 2950.000
478.996, 2921.000
480.333, 2959.000
481.670, 2926.000
483.007, 2910.000
484.343, 2953.000
485.679, 2901.000
487.015, 2966.000
488.351, 2927.000
489.686, 2940.000
491.022, 2991.000
492.357, 2949.000
493.692, 2986.000
495.026, 2959.000
496.360, 2994.000
497.695, 2969.000
499.029, 2946.000
500.362, 3113.000
501.696, 3227.000
503.029, 2964.000
504.362, 3068.000
505.695, 2923.000
507.027, 2968.000
508.360, 2965.000
509.692, 2941.000
511.024, 2921.000
512.355, 2913.083
513.687, 2920.508
515.018, 2932.000
516.349, 2923.000
517.680, 3022.000
519.011, 2964.000
520.341, 2985.000
521.671, 2987.000
523.001, 2921.000
524.331, 2947.000
525.660, 2949.000
526.989, 2963.000
528.318, 2941.000
529.647, 2947.000
530.976, 3001.000
532.304, 2999.000
533.632, 2969.000
534.960, 2944.000
536.288, 2964.000
537.615, 2947.000
538.943, 2929.000
540.270, 2970.000
541.596, 2954.000
542.923, 2954.000
544.249, 2938.000
545.576, 2991.000
546.902, 2970.000
548.227, 2908.000
549.553, 2977.000
550.878, 2906.000
552.203, 2975.000
553.528, 2942.000
554.852, 2918.000
556.177, 2960.000
557.501, 3015.000
558.825, 2975.000
560.149, 2985.000
561.472, 2935.000
562.795, 2984.000
564.118, 2921.000
565.441, 2945.000
566.764, 3038.000
568.086, 2998.000
569.408, 2967.000
570.730, 2979.000
572.052, 2985.000
573.374, 2965.000
574.695, 2960.000
576.016, 3047.000
577.337, 2946.000
578.657, 2931.000
579.978, 2981.000
581.298, 2917.000
582.618, 2918.000
583.938, 2928.000
585.257, 2949.000
586.577, 2953.000
587.896, 2963.000
589.215, 2921.000
590.533, 2877.000
591.852, 2919.000
593.170, 2893.000
594.488, 2924.000
595.806, 2925.380
597.123, 2907.000
598.441, 2928.000
599.758, 2956.000
601.075, 2951.000
602.391, 2982.000
603.708, 2929.000
605.024, 2967.000
606.340, 2913.000
607.656, 2934.000
608.971, 2997.000
610.287, 3004.000
611.602, 3006.000
612.917, 3006.000
614.232, 3036.000
615.546, 3052.000
616.860, 3113.000
618.174, 3130.000
619.488, 3101.000
620.802, 3074.000
622.115, 3103.167
623.429, 3094.000
624.742, 3148.000
626.054, 3188.000
627.367, 3214.000
628.679, 3279.000
629.991, 3296.336
631.303, 3356.000
632.615, 3371.000
633.926, 3387.000
635.237, 3472.000
636.548, 3429.000
637.859, 3492.000
639.170, 3430.000
640.480, 3443.000
641.790, 3482.000
643.100, 3517.000
644.410, 3467.000
645.719, 3279.000
647.029, 3220.000
648.338, 3224.000
649.647, 3178.000
650.955, 3173.000
652.264, 2992.000
653.572, 3008.000
654.880, 3058.000
656.188, 2958.000
657.495, 3010.000
658.802, 2900.000
660.110, 2901.000
661.416, 2954.000
662.723, 2915.000
664.030, 2984.000
665.336, 2887.000
666.642, 2944.000
667.948, 2918.000
669.253, 2889.000
670.559, 2842.000
671.864, 2890.000
673.169, 2906.000
674.473, 2902.000
675.778, 2802.000
677.082, 2944.000
678.386, 2806.000
679.690, 2796.000
680.994, 2828.000
682.297, 2743.000
683.600, 2781.000
684.903, 2724.000
686.206, 2713.000
687.509, 2762.000
688.811, 2667.000
690.113, 2733.000
691.415, 2690.000
692.717, 2748.000
694.018, 2760.000
695.320, 2713.000
696.621, 2698.000
697.922, 2680.000
699.222, 2707.000
700.523, 2736.000
701.823, 2659.000
703.123, 2759.000
704.423, 2735.000
705.722, 2688.000
707.022, 2758.000
708.321, 2732.000
709.620, 2728.000
710.918, 2666.000
712.217, 2743.000
713.515, 2703.000
714.813, 2681.000
716.111, 2742.000
717.409, 2660.000
718.706, 2669.000
720.003, 2724.000
721.300, 2716.000
722.597, 2716.000
723.893, 2703.000
725.190, 2700.063
726.486, 2696.000
727.782, 2684.000
729.078, 2715.000
730.373, 2699.000
731.668, 2634.000
732.963, 2678.000
734.258, 2659.000
735.553, 2668.000
736.847, 2707.000
738.142, 2693.000
739.436, 2711.000
740.729, 2675.000
742.023, 2688.000
743.316, 2667.000
744.609, 2693.000
745.902, 2701.000
747.195, 2659.000
748.487, 2673.000
749.780, 2664.000
751.072, 2678.000
752.364, 2708.000
753.655, 2659.000
754.947, 2688.000
756.238, 2690.000
757.529, 2675.000
758.820, 2678.000
760.110, 2703.000
761.401, 2669.000
762.691, 2700.000
763.981, 2745.000
765.271, 2688.000
766.560, 2639.000
767.849, 2662.000
769.139, 2706.000
770.427, 2665.000
771.716, 2695.000
773.005, 2663.000
774.293, 2684.000
775.581, 2763.000
776.869, 2726.000
778.156, 2748.000
779.444, 2675.000
780.731, 2655.000
782.018, 2758.000
783.305, 2655.000
784.591, 2747.000
785.878, 2705.000
787.164, 2740.000
788.450, 2741.000
789.735, 2732.000
791.021, 2727.000
792.306, 2742.000
793.591, 2729.048
794.876, 2718.000
796.161, 2731.000
797.445, 2755.000
798.729, 2785.000
800.013, 2745.000
801.297, 2727.000
802.581, 2767.000
803.864, 2772.000
805.147, 2779.000
806.430, 2744.000
807.713, 2774.000
808.996, 2756.000
810.278, 2835.000
811.560, 2810.000
812.842, 2759.000
814.124, 2854.000
815.405, 2847.000
816.687, 2836.000
817.968, 2862.000
819.248, 2801.000
820.529, 2897.000
821.810, 2850.000
823.090, 2828.000
824.370, 2859.000
825.650, 2796.000
826.929, 2862.000
828.209, 2871.000
829.488, 2870.000
830.767, 2894.000
832.046, 2889.114
833.324, 2864.000
834.602, 2895.000
835.881, 2869.000
837.159, 2880.000
838.436, 2821.000
839.714, 2908.000
840.991, 2859.000
842.268, 2882.000
843.545, 2880.000
844.822, 2881.000
846.098, 2894.000
847.374, 2900.000
848.650, 2898.000
849.926, 2951.000
851.202, 2885.000
852.477, 2946.000
853.752, 2960.000
855.027, 2922.000
856.302, 2933.000
857.577, 2972.000
858.851, 2928.000
860.125, 2952.000
861.399, 2889.000
862.673, 2919.000
863.947, 2928.000
865.220, 2934.000
866.493, 2954.000
867.766, 2954.613
869.039, 2937.000
870.311, 2974.000
871.583, 2971.000
872.856, 3004.000
874.127, 2983.000
875.399, 2967.000
876.671, 3010.000
877.942, 3012.000
879.213, 2975.000
880.484, 3013.000
881.754, 3052.000
883.025, 2916.000
884.295, 2963.000
885.565, 3044.000
886.835, 2959.000
888.104, 2932.000
889.374, 3020.000
890.643, 2995.000
891.912, 2999.000
893.180, 3027.000
894.449, 2995.000
895.717, 3012.000
896.986, 2935.000
898.253, 3004.000
899.521, 3051.000
900.789, 2969.000
902.056, 3033.000
903.323, 2999.000
904.590, 3009.000
905.857, 3078.000
907.123, 2997.000
908.389, 3037.000
909.655, 3039.000
910.921, 3038.000
912.187, 3010.000
913.452, 3006.000
914.718, 3027.000
915.983, 2967.000
917.247, 2997.000
918.512, 3072.000
919.777, 3025.000
921.041, 2993.000
922.305, 3014.000
923.569, 2987.000
924.832, 3023.000
926.095, 3047.000
927.359, 3034.586
928.622, 3045.000
929.884, 3037.000
931.147, 3001.000
932.409, 3013.000
933.671, 2998.000
934.933, 2996.143
936.195, 2985.000
937.457, 3006.000
938.718, 3023.000
939.979, 3040.000
941.240, 3079.000
942.501, 3034.000
943.761, 3008.000
945.022, 3108.000
946.282, 2996.000
947.541, 2987.000
948.801, 3022.000
950.061, 2964.000
951.320, 3033.000
952.579, 3058.000
953.838, 3042.000
955.096, 3043.000
956.355, 3062.000
957.613, 3053.519
958.871, 3058.000
960.129, 3052.000
961.387, 3035.000
962.644, 3018.000
963.901, 3091.000
965.158, 3062.000
966.415, 2982.000
967.672, 3046.000
968.928, 2944.000
970.184, 3031.000
971.440, 3043.000
972.696, 3002.000
973.952, 3062.000
975.207, 3039.000
976.462, 3036.000
977.717, 3008.000
978.972, 2977.000
980.227, 2971.000
981.481, 2991.000
982.735, 3026.000
983.989, 2996.000
985.243, 3041.000
986.496, 3031.000
987.750, 3036.061
989.003, 3040.634
990.256, 3043.000
991.509, 3031.000
992.761, 3028.000
994.013, 3030.000
995.266, 2993.000
996.517, 2998.000
997.769, 3008.000
999.021, 2993.000
1000.272, 3073.000
1001.523, 2966.000
1002.774, 3017.000
1004.025, 3054.000
1005.275, 2959.000
1006.525, 3136.000
1007.776, 3052.453
1009.025, 3044.000
1010.275, 3019.000
1011.525, 3010.000
1012.774, 3032.000
1014.023, 3026.000
1015.272, 3009.000
1016.521, 3064.000
1017.769, 2999.000
1019.017, 3002.000
1020.265, 3076.000
1021.513, 3040.000
1022.761, 3100.000
1024.008, 2997.000
1025.256, 3043.000
1026.503, 3104.000
1027.749, 2993.000
1028.996, 3062.000
1030.243, 3050.000
1031.489, 3050.000
1032.735, 3129.000
1033.981, 3077.000
1035.226, 3089.000
1036.472, 3101.000
1037.717, 3023.000
1038.962, 3072.000
1040.207, 3097.000
1041.452, 3043.000
1042.696, 3124.000
1043.940, 3052.000
1045.184, 3082.000
1046.428, 3087.000
1047.672, 3061.000
1048.915, 3136.000
1050.158, 3072.000
1051.401, 3063.000
1052.644, 3103.000
1053.887, 3067.000
1055.129, 3138.000
1056.371, 3101.000
1057.613, 3087.000
1058.855, 3154.000
1060.097, 3056.000
1061.338, 3057.000
1062.579, 3130.000
1063.820, 3083.000
1065.061, 3123.000
1066.302, 3095.000
1067.542, 3069.000
1068.782, 3112.000
1070.022, 3090.000
1071.262, 3110.000
1072.502, 3094.000
1073.741, 3123.000
1074.980, 3138.000
1076.220, 3090.000
1077.458, 3084.000
1078.697, 3145.000
1079.935, 3109.000
1081.174, 3124.000
1082.412, 3175.000
1083.649, 3149.000
1084.887, 3139.000
1086.124, 3035.000
1087.362, 3082.000
1088.599, 3154.000
1089.835, 3082.000
1091.072, 3153.000
1092.308, 3159.000
1093.545, 3143.000
1094.781, 3132.000
1096.016, 3041.000
1097.252, 3133.000
1098.487, 3163.000
1099.723, 3084.000
1100.958, 3214.000
1102.192, 3189.000
1103.427, 3160.000
1104.661, 3118.000
1105.896, 3083.000
1107.130, 3155.000
1108.363, 3175.000
1109.597, 3161.000
1110.831, 3214.000
1112.064, 3127.000
1113.297, 3155.000
1114.530, 3172.000
1115.762, 3162.000
1116.995, 3192.000
1118.227, 3190.000
1119.459, 3151.000
1120.691, 3174.000
1121.922, 3162.000
1123.154, 3176.000
1124.385, 3200.000
1125.616, 3148.000
1126.847, 3201.000
1128.077, 3190.000
1129.308, 3191.000
1130.538, 3244.000
1131.768, 3176.000
1132.998, 3190.000
1134.228, 3252.000
1135.457, 3169.000
1136.686, 3270.000
1137.915, 3217.000
1139.144, 3298.000
1140.373, 3264.000
1141.601, 3200.000
1142.830, 3226.000
1144.058, 3262.000
1145.286, 3255.000
1146.513, 3247.000
1147.741, 3230.000
1148.968, 3220.000
1150.195, 3284.000
1151.422, 3248.000
1152.649, 3286.000
1153.875, 3258.000
1155.101, 3258.000
1156.327, 3268.000
1157.553, 3243.000
1158.779, 3281.000
1160.005, 3288.000
1161.230, 3258.000
1162.455, 3289.000
1163.680, 3297.000
1164.905, 3197.000
1166.129, 3317.000
1167.353, 3239.000
1168.577, 3287.000
1169.801, 3334.000
1171.025, 3287.000
1172.249, 3247.000
1173.472, 3271.000
1174.695, 3293.000
1175.918, 3309.000
1177.141, 3290.000
1178.363, 3322.000
1179.586, 3342.000
1180.808, 3287.000
1182.030, 3273.000
1183.252, 3385.000
1184.473, 3295.000
1185.694, 3392.000
1186.916, 3307.000
1188.137, 3328.000
1189.357, 3346.000
1190.578, 3356.000
1191.798, 3381.000
1193.019, 3331.000
1194.239, 3290.000
1195.458, 3410.000
1196.678, 3361.000
1197.897, 3390.000
1199.117, 3377.000
1200.336, 3353.000
1201.554, 3386.000
1202.773, 3419.000
1203.991, 3329.000
1205.210, 3422.000
1206.428, 3411.000
1207.646, 3348.000
1208.863, 3458.000
1210.081, 3404.000
1211.298, 3407.000
1212.515, 3470.000
1213.732, 3403.000
1214.949, 3442.000
1216.165, 3436.000
1217.381, 3444.000
1218.597, 3494.000
1219.813, 3459.000
1221.029, 3419.000
1222.245, 3503.000
1223.460, 3431.000
1224.675, 3499.000
1225.890, 3511.000
1227.105, 3454.000
1228.319, 3499.000
1229.533, 3430.000
1230.748, 3491.000
1231.962, 3463.000
1233.175, 3426.000
1234.389, 3485.000
1235.602, 3520.000
1236.815, 3491.000
1238.028, 3572.000
1239.241, 3509.000
1240.454, 3540.000
1241.666, 3542.000
1242.878, 3456.000
1244.090, 3544.000
1245.302, 3535.000
1246.514, 3590.000
1247.725, 3615.000
1248.936, 3540.000
1250.147, 3517.000
1251.358, 3643.000
1252.569, 3564.000
1253.779, 3598.000
1254.990, 3655.000
1256.200, 3532.000
1257.410, 3694.000
1258.619, 3574.000
1259.829, 3627.000
1261.038, 3618.000
1262.247, 3626.000
1263.456, 3600.000
1264.665, 3634.000
1265.873, 3568.000
1267.082, 3651.000
1268.290, 3653.000
1269.498, 3568.000
1270.705, 3699.000
1271.913, 3612.000
1273.120, 3644.000
1274.328, 3687.000
1275.535, 3619.000
1276.741, 3745.000
1277.948, 3689.000
1279.154, 3596.000
1280.361, 3730.000
1281.567, 3663.000
1282.772, 3682.000
1283.978, 3722.000
1285.183, 3631.000
1286.389, 3743.000
1287.594, 3650.000
1288.799, 3614.000
1290.003, 3743.000
1291.208, 3660.000
1292.412, 3704.000
1293.616, 3777.000
1294.820, 3696.000
1296.024, 3674.000
1297.227, 3773.000
1298.431, 3696.000
1299.634, 3755.000
1300.837, 3727.000
1302.039, 3692.000
1303.242, 3785.000
1304.444, 3691.000
1305.647, 3789.000
1306.848, 3816.000
1308.050, 3732.000
1309.252, 3923.000
1310.453, 3851.711
1311.654, 3721.000
1312.856, 3841.000
1314.056, 3744.000
1315.257, 3729.000
1316.457, 3860.000
1317.658, 3793.000
1318.858, 3801.000
1320.058, 3870.000
1321.257, 3725.000
1322.457, 3888.000
1323.656, 3831.000
1324.855, 3825.000
1326.054, 3893.000
1327.253, 3809.000
1328.451, 3805.000
1329.650, 3899.000
1330.848, 3859.000
1332.046, 3867.000
1333.244, 3903.000
1334.441, 3844.000
1335.639, 3921.000
1336.836, 3846.000
1338.033, 3810.000
1339.230, 3968.000
1340.426, 3835.000
1341.623, 3946.000
1342.819, 3911.000
1344.015, 3878.000
1345.211, 4007.000
1346.407, 3953.000
1347.602, 3918.000
1348.797, 3986.000
1349.993, 3911.000
1351.188, 3943.000
1352.382, 4020.000
1353.577, 3959.000
1354.771, 3958.000
1355.965, 4042.000
1357.159, 3977.000
1358.353, 4042.000
1359.547, 3970.000
1360.740, 3973.000
1361.933, 4160.000
1363.126, 4147.758
1364.319, 4390.000
1365.512, 4289.000
1366.704, 4035.000
1367.897, 4042.000
1369.089, 4096.000
1370.281, 4042.000
1371.472, 4188.000
1372.664, 4008.000
1373.855, 4034.000
1375.046, 4116.000
1376.237, 4060.000
1377.428, 4130.000
1378.618, 4078.000
1379.809, 4166.000
1380.999, 4135.957
1382.189, 4157.000
1383.379, 4082.000
1384.568, 4178.000
1385.758, 4114.000
1386.947, 4157.000
1388.136, 4142.000
1389.325, 4060.000
1390.514, 4071.000
1391.702, 4153.000
1392.891, 4175.000
1394.079, 4235.000
1395.267, 4238.065
1396.454, 4107.000
1397.642, 4222.000
1398.829, 4144.000
1400.016, 4118.000
1401.203, 4228.000
1402.390, 4164.000
1403.577, 4165.000
1404.763, 4241.000
1405.949, 4129.000
1407.135, 4245.000
1408.321, 4216.000
1409.507, 4194.000
1410.692, 4278.000
1411.878, 4227.000
1413.063, 4217.000
1414.248, 4246.000
1415.433, 4133.000
1416.617, 4204.000
1417.801, 4362.000
1418.986, 4126.000
1420.170, 4308.000
1421.353, 4266.000
1422.537, 4234.000
1423.720, 4377.000
1424.904, 4250.000
1426.087, 4321.000
1427.270, 4379.000
1428.452, 4241.000
1429.635, 4316.000
1430.817, 4339.000
1431.999, 4246.000
1433.181, 4362.000
1434.363, 4348.000
1435.544, 4289.000
1436.726, 4447.000
1437.907, 4252.000
1439.088, 4397.000
1440.269, 4433.000
1441.449, 4249.000
1442.630, 4402.000
1443.810, 4393.000
1444.990, 4268.000
1446.170, 4426.000
1447.349, 4371.000
1448.529, 4342.000
1449.708, 4426.000
1450.887, 4334.000
1452.066, 4438.000
1453.245, 4502.000
1454.424, 4288.000
1455.602, 4438.000
1456.780, 4441.000
1457.958, 4341.000
1459.136, 4484.000
1460.314, 4426.000
1461.491, 4440.000
1462.668, 4463.000
1463.845, 4412.000
1465.022, 4411.000
1466.199, 4525.000
1467.376, 4450.000
1468.552, 4499.000
1469.728, 4551.000
1470.904, 4471.000
1472.080, 4486.000
1473.255, 4533.000
1474.431, 4395.000
1475.606, 4564.000
1476.781, 4469.000
1477.956, 4454.000
1479.131, 4602.000
1480.305, 4448.000
1481.479, 4522.000
1482.653, 4656.000
1483.827, 4449.000
1485.001, 4556.000
1486.175, 4580.000
1487.348, 4456.000
1488.521, 4698.000
1489.694, 4587.000
1490.867, 4514.000
1492.040, 4638.000
1493.212, 4578.000
1494.384, 4592.000
1495.556, 4682.000
1496.728, 4539.000
1497.900, 4570.000
1499.071, 4621.000
1500.243, 4563.000
1501.414, 4657.000
1502.585, 4608.000
1503.756, 4561.000
1504.926, 4768.000
1506.097, 4693.000
1507.267, 4636.000
1508.437, 4749.000
1509.607, 4577.000
1510.776, 4656.000
1511.946, 4663.000
1513.115, 4567.000
1514.284, 4764.000
1515.453, 4701.000
1516.622, 4595.000
1517.791, 4773.000
1518.959, 4714.000
1520.127, 4654.000
##END=



