##NAMES=Thenardite
##RRUFFID=R040178
##IDEAL CHEMISTRY=Na_2_S^6+^O_4_
##LOCALITY=Bonita Flow, Flagstaff, Coconino County, Arizona, USA
##OWNER=RRUFF
##SOURCE=University of Arizona Mineral Museum
##DESCRIPTION=Tan colored powder
##STATUS=The identification of this mineral has been confirmed by X-ray diffraction.
##URL=rruff.info/R040178
157.902, 9013.000
159.281, 9192.000
160.660, 9181.000
162.038, 9247.000
163.416, 9299.000
164.794, 9250.000
166.172, 9257.000
167.549, 9120.000
168.926, 9278.000
170.303, 9221.000
171.680, 9313.000
173.056, 9270.000
174.433, 9259.000
175.809, 9307.000
177.185, 9285.000
178.560, 9356.000
179.936, 9258.000
181.311, 9351.000
182.686, 9386.000
184.060, 9461.000
185.435, 9474.000
186.809, 9336.000
188.183, 9485.000
189.557, 9467.000
190.930, 9447.000
192.304, 9550.000
193.677, 9419.000
195.049, 9617.000
196.422, 9518.000
197.794, 9520.000
199.167, 9554.000
200.539, 9495.000
201.910, 9724.000
203.282, 9558.000
204.653, 9708.000
206.024, 9592.000
207.395, 9712.000
208.765, 9701.000
210.136, 9698.000
211.506, 9780.000
212.876, 9742.000
214.245, 9794.000
215.615, 9787.000
216.984, 9851.000
218.353, 9850.000
219.722, 9898.000
221.090, 9810.000
222.459, 9761.000
223.827, 9924.000
225.195, 9832.000
226.562, 9996.000
227.930, 9931.000
229.297, 9862.000
230.664, 10010.000
232.031, 9905.000
233.397, 9982.000
234.763, 10040.000
236.129, 10050.000
237.495, 10120.000
238.861, 10150.000
240.226, 10110.000
241.591, 10030.000
242.956, 10180.000
244.321, 10270.000
245.685, 10110.000
247.050, 10210.000
248.414, 10140.000
249.778, 10200.000
251.141, 10280.000
252.504, 10250.000
253.868, 10320.000
255.230, 10380.000
256.593, 10330.000
257.956, 10280.000
259.318, 10313.166
260.680, 10290.000
262.042, 10350.000
263.403, 10390.000
264.764, 10460.000
266.126, 10500.000
267.486, 10502.697
268.847, 10450.000
270.207, 10460.000
271.568, 10490.000
272.928, 10410.000
274.287, 10390.000
275.647, 10550.000
277.006, 10470.000
278.365, 10550.000
279.724, 10510.000
281.083, 10460.000
282.441, 10670.000
283.799, 10620.000
285.157, 10750.000
286.515, 10610.000
287.873, 10790.000
289.230, 10760.000
290.587, 10890.000
291.944, 10870.000
293.300, 10800.000
294.657, 10830.000
296.013, 10760.000
297.369, 10930.000
298.725, 10990.000
300.080, 10920.000
301.435, 10950.000
302.790, 11010.000
304.145, 11080.000
305.500, 11090.000
306.854, 11020.000
308.208, 11020.000
309.562, 10980.000
310.916, 11140.000
312.270, 11130.000
313.623, 11190.000
314.976, 11040.000
316.329, 11180.000
317.681, 11370.000
319.034, 11150.000
320.386, 11310.000
321.738, 11310.000
323.089, 11280.000
324.441, 11350.000
325.792, 11210.000
327.143, 11440.000
328.494, 11280.000
329.845, 11420.000
331.195, 11360.000
332.545, 11490.000
333.895, 11560.000
335.245, 11370.000
336.594, 11490.000
337.944, 11480.000
339.293, 11640.000
340.641, 11530.000
341.990, 11570.000
343.338, 11670.000
344.687, 11550.000
346.035, 11670.000
347.382, 11700.000
348.730, 11600.000
350.077, 11700.000
351.424, 11660.000
352.771, 11680.000
354.118, 11760.000
355.464, 11740.000
356.810, 11790.000
358.156, 11810.000
359.502, 11838.479
360.847, 11840.000
362.193, 11900.000
363.538, 11940.000
364.882, 11940.000
366.227, 11990.000
367.571, 11940.000
368.916, 12100.000
370.260, 11880.000
371.603, 12130.000
372.947, 12160.000
374.290, 12110.000
375.633, 12210.000
376.976, 12050.000
378.319, 12280.000
379.661, 12180.000
381.003, 12120.000
382.345, 12280.000
383.687, 12140.000
385.029, 12290.000
386.370, 12180.000
387.711, 12260.000
389.052, 12290.000
390.393, 12180.000
391.733, 12360.000
393.073, 12250.000
394.413, 12290.000
395.753, 12350.000
397.093, 12460.000
398.432, 12510.000
399.771, 12440.000
401.110, 12450.000
402.449, 12500.000
403.787, 12520.000
405.125, 12640.000
406.463, 12510.000
407.801, 12530.000
409.139, 12480.000
410.476, 12630.000
411.813, 12780.000
413.150, 12720.000
414.487, 12890.000
415.823, 12750.000
417.160, 12690.000
418.496, 12830.000
419.832, 12780.000
421.167, 12850.000
422.503, 12670.000
423.838, 13020.000
425.173, 12890.000
426.508, 12850.000
427.842, 13050.000
429.176, 12920.000
430.510, 13110.000
431.844, 13060.000
433.178, 12990.000
434.511, 13300.000
435.845, 13150.000
437.178, 13320.000
438.510, 13270.000
439.843, 13380.000
441.175, 13440.000
442.507, 13490.000
443.839, 13650.000
445.171, 13700.000
446.503, 13820.000
447.834, 14000.000
449.165, 14210.000
450.496, 14490.000
451.826, 14420.000
453.157, 14780.000
454.487, 14600.000
455.817, 14780.000
457.147, 14720.000
458.476, 14570.000
459.805, 14620.000
461.134, 14530.000
462.463, 14480.000
463.792, 14580.000
465.120, 14700.000
466.449, 14900.000
467.777, 14800.000
469.104, 14870.000
470.432, 14810.000
471.759, 14610.000
473.087, 14700.000
474.413, 14350.000
475.740, 14500.000
477.067, 14290.000
478.393, 14320.000
479.719, 14090.000
481.045, 13980.000
482.370, 14130.000
483.696, 13960.000
485.021, 14030.000
486.346, 14040.000
487.671, 13990.000
488.995, 14350.000
490.320, 13980.000
491.644, 14050.000
492.968, 14170.000
494.291, 13970.000
495.615, 14140.000
496.938, 14100.000
498.261, 14170.000
499.584, 14100.000
500.907, 14150.000
502.229, 14230.000
503.551, 14110.000
504.873, 14200.000
506.195, 14150.000
507.516, 14310.000
508.838, 14420.000
510.159, 14090.000
511.480, 14380.000
512.800, 14240.000
514.121, 14330.000
515.441, 14400.000
516.761, 14280.000
518.081, 14430.000
519.400, 14230.000
520.720, 14340.000
522.039, 14440.000
523.358, 14540.000
524.677, 14520.000
525.995, 14400.000
527.314, 14640.000
528.632, 14530.000
529.949, 14420.000
531.267, 14490.000
532.585, 14550.000
533.902, 14750.000
535.219, 14540.000
536.536, 14650.000
537.852, 14770.000
539.169, 14560.000
540.485, 14850.000
541.801, 14570.000
543.117, 14710.000
544.432, 14790.000
545.747, 14730.000
547.062, 14890.000
548.377, 14690.000
549.692, 15030.000
551.006, 14900.000
552.321, 14840.000
553.635, 14920.000
554.949, 14877.782
556.262, 14980.000
557.576, 14970.000
558.889, 14970.000
560.202, 15060.000
561.514, 15010.000
562.827, 15160.000
564.139, 15090.000
565.451, 15220.000
566.763, 15120.000
568.075, 15030.000
569.387, 15290.000
570.698, 15240.000
572.009, 15240.000
573.320, 15390.000
574.630, 15200.000
575.941, 15440.000
577.251, 15180.000
578.561, 15350.000
579.871, 15520.000
581.180, 15400.000
582.490, 15400.000
583.799, 15460.000
585.108, 15510.000
586.416, 15590.000
587.725, 15500.000
589.033, 15690.000
590.341, 15550.000
591.649, 15550.000
592.957, 15720.000
594.264, 15560.000
595.571, 15700.000
596.878, 15670.000
598.185, 15640.000
599.492, 15730.000
600.798, 15700.000
602.104, 16000.000
603.410, 15700.000
604.716, 15940.000
606.022, 15860.000
607.327, 15940.000
608.632, 16110.000
609.937, 15950.000
611.242, 15980.000
612.546, 16280.000
613.850, 16240.000
615.155, 16410.000
616.458, 16310.000
617.762, 16630.000
619.065, 16820.000
620.369, 17350.000
621.672, 17750.000
622.975, 17660.000
624.277, 17850.000
625.579, 17610.000
626.882, 17250.000
628.184, 17320.000
629.485, 17220.000
630.787, 17600.000
632.088, 17650.000
633.389, 17890.000
634.690, 18190.000
635.991, 18080.000
637.291, 18030.000
638.592, 17450.000
639.892, 17230.000
641.192, 17390.000
642.491, 17150.000
643.791, 17460.000
645.090, 17460.000
646.389, 17820.000
647.688, 17930.000
648.986, 17890.000
650.285, 18070.000
651.583, 17670.000
652.881, 17190.000
654.179, 17460.000
655.476, 17080.000
656.773, 17130.000
658.071, 16980.000
659.368, 16920.000
660.664, 17000.000
661.961, 16730.000
663.257, 16860.000
664.553, 16940.000
665.849, 16960.000
667.145, 17040.000
668.440, 16940.000
669.735, 17160.000
671.030, 16970.000
672.325, 16990.000
673.620, 17150.000
674.914, 17000.000
676.208, 17120.000
677.502, 17090.000
678.796, 17050.000
680.090, 17310.000
681.383, 17100.000
682.676, 17200.000
683.969, 17150.000
685.262, 17270.000
686.555, 17230.000
687.847, 17180.000
689.139, 17380.000
690.431, 17330.000
691.723, 17510.000
693.014, 17480.000
694.305, 17310.000
695.597, 17700.000
696.887, 17380.000
698.178, 17440.000
699.469, 17490.000
700.759, 17310.000
702.049, 17730.000
703.339, 17580.000
704.628, 17520.000
705.918, 17880.000
707.207, 17520.000
708.496, 17780.000
709.785, 17750.000
711.073, 17620.000
712.362, 18030.000
713.650, 17830.000
714.938, 17980.000
716.226, 17880.000
717.513, 18090.000
718.801, 18030.000
720.088, 17800.000
721.375, 18230.000
722.661, 17940.000
723.948, 17990.000
725.234, 18160.000
726.520, 18100.000
727.806, 18160.000
729.092, 18080.000
730.377, 18170.000
731.663, 18340.000
732.948, 18020.000
734.233, 18370.000
735.517, 18140.000
736.802, 18250.000
738.086, 18450.000
739.370, 18390.000
740.654, 18410.000
741.937, 18360.000
743.221, 18320.000
744.504, 18590.000
745.787, 18360.000
747.070, 18440.000
748.352, 18550.000
749.635, 18460.000
750.917, 18680.000
752.199, 18600.000
753.481, 18670.000
754.762, 18720.000
756.044, 18690.000
757.325, 18770.000
758.606, 18650.000
759.887, 18800.000
761.167, 18740.000
762.448, 18610.000
763.728, 18990.000
765.008, 18880.000
766.287, 18960.000
767.567, 19030.000
768.846, 18820.000
770.125, 19150.000
771.404, 18990.000
772.683, 18950.000
773.961, 19070.000
775.240, 19090.000
776.518, 19180.000
777.796, 19130.000
779.073, 19240.000
780.351, 19230.000
781.628, 18990.000
782.905, 19400.000
784.182, 19190.000
785.459, 19240.000
786.735, 19380.000
788.011, 19020.000
789.287, 19460.000
790.563, 19390.000
791.839, 19280.000
793.114, 19630.000
794.389, 19190.000
795.664, 19530.000
796.939, 19530.000
798.214, 19490.000
799.488, 19640.000
800.762, 19540.000
802.036, 19810.000
803.310, 19710.000
804.584, 19630.000
805.857, 19900.000
807.130, 19680.000
808.403, 19920.000
809.676, 19740.000
810.949, 19670.000
812.221, 19970.000
813.493, 19770.000
814.765, 19890.000
816.037, 19860.000
817.308, 19970.000
818.580, 20270.000
819.851, 19840.000
821.122, 19990.000
822.393, 20260.000
823.663, 19940.000
824.934, 20250.000
826.204, 19960.000
827.474, 20190.000
828.743, 20250.000
830.013, 20100.000
831.282, 20250.000
832.551, 20300.000
833.820, 20340.000
835.089, 20400.000
836.357, 20090.000
837.626, 20460.000
838.894, 20380.000
840.162, 20200.000
841.429, 20630.000
842.697, 20360.000
843.964, 20450.000
845.231, 20810.000
846.498, 20570.000
847.765, 20770.000
849.031, 20650.000
850.298, 20800.000
851.564, 20660.000
852.830, 20670.000
854.095, 20820.000
855.361, 20790.000
856.626, 21010.000
857.891, 20990.000
859.156, 20950.000
860.421, 21160.000
861.685, 20840.000
862.949, 21030.000
864.214, 21180.000
865.477, 20930.000
866.741, 21080.000
868.005, 21100.000
869.268, 20950.000
870.531, 21280.000
871.794, 21070.000
873.056, 21340.000
874.319, 21240.000
875.581, 21120.000
876.843, 21460.000
878.105, 21340.000
879.367, 21200.000
880.628, 21610.000
881.889, 21240.000
883.150, 21530.000
884.411, 21490.000
885.672, 21380.000
886.932, 21490.000
888.193, 21440.000
889.453, 21860.000
890.712, 21680.000
891.972, 21490.000
893.232, 21900.000
894.491, 21550.000
895.750, 21850.000
897.009, 21930.000
898.267, 21810.000
899.526, 22070.000
900.784, 21800.000
902.042, 22220.000
903.300, 21910.000
904.558, 21990.000
905.815, 22300.000
907.072, 21960.000
908.329, 22110.000
909.586, 22340.000
910.843, 21930.000
912.099, 22440.000
913.355, 22270.000
914.611, 22330.000
915.867, 22380.000
917.123, 22420.000
918.378, 22550.000
919.634, 22549.631
920.889, 22570.000
922.144, 22610.000
923.398, 22580.000
924.653, 22630.000
925.907, 22870.000
927.161, 22510.000
928.415, 22890.000
929.668, 22560.000
930.922, 22830.000
932.175, 22890.000
933.428, 22860.000
934.681, 23050.000
935.934, 23070.000
937.186, 22780.000
938.438, 23270.000
939.691, 22850.000
940.942, 23010.000
942.194, 23300.000
943.445, 23010.000
944.697, 23420.000
945.948, 23290.000
947.199, 23180.000
948.449, 23480.000
949.700, 23170.000
950.950, 23560.000
952.200, 23350.000
953.450, 23340.000
954.700, 23600.000
955.949, 23320.000
957.199, 23600.000
958.448, 23580.000
959.696, 23410.000
960.945, 23770.000
962.194, 23330.000
963.442, 23840.000
964.690, 23860.000
965.938, 23650.000
967.186, 23970.000
968.433, 23920.000
969.680, 23810.000
970.928, 24160.000
972.174, 23950.000
973.421, 24150.000
974.668, 24620.000
975.914, 24400.000
977.160, 24650.000
978.406, 24620.000
979.652, 24670.000
980.897, 24970.000
982.143, 25240.000
983.388, 25660.000
984.633, 26200.000
985.877, 27100.000
987.122, 28710.000
988.366, 31750.000
989.611, 38250.000
990.854, 48260.000
992.098, 56240.000
993.342, 55840.000
994.585, 46790.000
995.828, 38160.000
997.071, 33090.000
998.314, 29940.000
999.557, 28270.000
1000.799, 27340.000
1002.041, 26480.000
1003.283, 26350.000
1004.525, 26120.000
1005.767, 26030.000
1007.008, 26050.000
1008.249, 25710.000
1009.490, 25960.000
1010.731, 25380.000
1011.972, 25600.000
1013.212, 25590.000
1014.452, 25300.000
1015.692, 25660.000
1016.932, 25420.000
1018.172, 25280.000
1019.411, 25590.000
1020.650, 25120.000
1021.889, 25440.000
1023.128, 25320.000
1024.367, 25110.000
1025.605, 25430.000
1026.844, 25390.000
1028.082, 25260.000
1029.320, 25710.000
1030.557, 25230.000
1031.795, 25810.000
1033.032, 25570.000
1034.269, 25420.000
1035.506, 25830.000
1036.743, 25500.000
1037.979, 25650.000
1039.216, 25790.000
1040.452, 25660.000
1041.688, 25960.000
1042.923, 25690.000
1044.159, 25900.000
1045.394, 26250.000
1046.629, 25540.000
1047.864, 25980.000
1049.099, 25810.000
1050.334, 25810.000
1051.568, 26160.000
1052.802, 25810.000
1054.036, 26000.000
1055.270, 26260.000
1056.504, 25830.000
1057.737, 26240.000
1058.970, 26020.000
1060.203, 26060.000
1061.436, 26280.000
1062.669, 26200.000
1063.901, 26360.000
1065.133, 26420.000
1066.365, 26170.000
1067.597, 26660.000
1068.829, 26480.000
1070.060, 26270.000
1071.291, 26680.000
1072.522, 26420.000
1073.753, 26690.000
1074.984, 26490.000
1076.214, 26240.000
1077.445, 26850.000
1078.675, 26620.000
1079.905, 26680.000
1081.134, 26810.000
1082.364, 26550.000
1083.593, 26780.000
1084.822, 26990.000
1086.051, 26620.000
1087.280, 27050.000
1088.509, 26700.000
1089.737, 27080.000
1090.965, 27400.000
1092.193, 27210.000
1093.421, 27570.000
1094.648, 27790.000
1095.876, 28180.000
1097.103, 28460.000
1098.330, 28620.000
1099.557, 29170.000
1100.783, 29720.000
1102.010, 28980.000
1103.236, 28920.000
1104.462, 28270.000
1105.688, 27740.000
1106.914, 27970.000
1108.139, 27430.000
1109.364, 27630.000
1110.589, 27740.000
1111.814, 27430.000
1113.039, 27900.000
1114.264, 27400.000
1115.488, 27560.000
1116.712, 27810.000
1117.936, 27440.000
1119.160, 27820.000
1120.383, 28050.000
1121.606, 27710.000
1122.830, 28090.000
1124.053, 27980.000
1125.275, 28230.000
1126.498, 28730.000
1127.720, 29340.000
1128.943, 30060.000
1130.165, 30190.000
1131.386, 29710.000
1132.608, 29600.000
1133.829, 28710.000
1135.051, 28450.000
1136.272, 28690.000
1137.493, 28240.000
1138.713, 28340.000
1139.934, 28350.000
1141.154, 28290.000
1142.374, 28660.000
1143.594, 28440.000
1144.814, 28670.000
1146.033, 29240.000
1147.252, 29120.000
1148.472, 31030.000
1149.691, 31500.000
1150.909, 31570.000
1152.128, 31470.000
1153.346, 29940.000
1154.564, 29680.000
1155.782, 29510.000
1157.000, 28710.000
1158.218, 29000.000
1159.435, 28740.000
1160.652, 28670.000
1161.869, 28790.000
1163.086, 28460.000
1164.303, 28690.000
1165.519, 29010.000
1166.736, 28390.000
1167.952, 29050.000
1169.168, 28750.000
1170.383, 28630.000
1171.599, 29160.000
1172.814, 28670.000
1174.029, 28950.000
1175.244, 29200.000
1176.459, 28680.000
1177.673, 29110.000
1178.888, 28980.000
1180.102, 29070.000
1181.316, 29390.000
1182.530, 28950.000
1183.743, 29310.000
1184.957, 29400.000
1186.170, 29170.000
1187.383, 29430.000
1188.596, 29340.000
1189.809, 29130.000
1191.021, 29610.000
1192.233, 29300.000
1193.445, 29640.000
1194.657, 29720.000
1195.869, 29310.000
1197.081, 29680.000
1198.292, 29480.000
1199.503, 29550.000
1200.714, 29910.000
1201.925, 29550.000
1203.135, 29770.000
1204.346, 30180.000
1205.556, 29930.000
1206.766, 30330.000
1207.976, 30010.000
1209.185, 29810.000
1210.395, 30260.000
1211.604, 29810.000
1212.813, 30100.000
1214.022, 30320.000
1215.231, 30050.000
1216.439, 30380.000
1217.648, 30310.000
1218.856, 30240.000
1220.064, 30450.000
1221.271, 30390.000
1222.479, 30570.000
1223.686, 30710.000
1224.893, 30340.000
1226.100, 30680.000
1227.307, 30460.000
1228.514, 30580.000
1229.720, 31110.000
1230.927, 30300.000
1232.133, 30700.000
1233.338, 30900.000
1234.544, 30740.000
1235.750, 30910.000
1236.955, 30880.000
1238.160, 30830.000
1239.365, 31250.000
1240.570, 30810.000
1241.774, 31070.000
1242.979, 31430.000
1244.183, 30890.000
1245.387, 31330.000
1246.591, 31220.000
1247.794, 30950.000
1248.998, 31500.000
1250.201, 31180.000
1251.404, 31250.000
1252.607, 31810.000
1253.809, 30990.000
1255.012, 31530.000
1256.214, 31600.000
1257.416, 31400.000
1258.618, 31690.000
1259.820, 31310.000
1261.021, 31340.000
1262.223, 31930.000
1263.424, 31590.000
1264.625, 31470.000
1265.826, 31790.000
1267.026, 31370.000
1268.227, 31730.000
1269.427, 31900.000
1270.627, 31370.000
1271.827, 32020.000
1273.027, 31590.000
1274.226, 31730.000
1275.425, 31880.000
1276.625, 31260.000
1277.824, 32150.000
1279.022, 31670.000
1280.221, 31670.000
1281.419, 32390.000
1282.617, 31840.000
1283.815, 31930.000
1285.013, 32500.000
1286.211, 31960.000
1287.408, 32300.000
1288.606, 32510.000
1289.803, 31850.000
1291.000, 32560.000
1292.196, 32340.000
1293.393, 32260.000
1294.589, 32580.000
1295.785, 32200.000
1296.981, 32660.000
1298.177, 32720.000
1299.373, 32440.000
1300.568, 32940.000
1301.763, 32520.000
1302.958, 32560.000
1304.153, 33240.000
1305.348, 32610.000
1306.542, 32640.000
1307.736, 33200.000
1308.931, 32630.000
1310.124, 32930.000
1311.318, 33080.000
1312.512, 32650.000
1313.705, 33330.000
1314.898, 33110.000
1316.091, 33140.000
1317.284, 33450.000
1318.477, 32990.000
1319.669, 33330.000
1320.861, 33450.000
1322.053, 33110.000
1323.245, 33630.000
1324.437, 33620.000
1325.628, 33210.000
1326.820, 33780.000
1328.011, 33330.000
1329.202, 33550.000
1330.393, 33990.000
1331.583, 33540.000
1332.774, 33960.000
1333.964, 33860.000
1335.154, 33660.000
1336.344, 34340.000
1337.533, 34100.000
1338.723, 33950.000
1339.912, 34440.000
1341.101, 33970.000
1342.290, 34320.000
1343.479, 34540.000
1344.668, 33990.000
1345.856, 34660.000
1347.044, 34460.000
1348.232, 34250.000
1349.420, 34930.000
1350.608, 34550.000
1351.795, 34700.000
1352.982, 35220.000
1354.169, 34530.000
1355.356, 34950.000
1356.543, 35000.000
1357.730, 34680.000
1358.916, 35310.000
1360.102, 35010.000
1361.288, 34980.000
1362.474, 35550.000
1363.659, 34890.000
1364.845, 35080.000
1366.030, 35260.000
1367.215, 34840.000
1368.400, 35630.000
1369.585, 35340.000
1370.769, 35080.000
1371.954, 35640.000
1373.138, 35360.000
1374.322, 35340.000
1375.506, 35970.000
1376.689, 35490.000
1377.873, 35880.000
1379.056, 36120.000
1380.239, 35510.000
1381.422, 36040.000
1382.604, 36220.000
1383.787, 35910.000
1384.969, 36430.000
1386.151, 36220.000
1387.333, 36080.000
1388.515, 36750.000
1389.697, 36060.000
1390.878, 36540.000
1392.059, 36540.000
1393.240, 36090.000
1394.421, 36480.000
1395.602, 36620.000
1396.782, 36170.000
1397.963, 37010.000
1399.143, 36490.000
1400.323, 36630.000
1401.503, 37280.000
1402.682, 36430.000
1403.862, 36820.000
1405.041, 37120.000
1406.220, 36600.000
1407.399, 37120.000
1408.577, 37010.000
1409.756, 36790.000
1410.934, 37520.000
1412.112, 37100.000
1413.290, 37110.000
1414.468, 37920.000
1415.646, 37130.000
1416.823, 37590.000
1418.000, 37680.000
1419.177, 36930.000
1420.354, 37920.000
1421.531, 37620.000
1422.707, 37480.000
1423.884, 38140.000
1425.060, 37750.000
1426.236, 37920.000
1427.412, 38290.000
1428.587, 37580.000
1429.763, 38280.000
1430.938, 38340.000
1432.113, 37930.000
1433.288, 38690.000
1434.462, 38450.000
1435.637, 38090.000
1436.811, 38990.000
1437.985, 38230.000
1439.159, 38260.000
1440.333, 39290.000
1441.507, 38550.000
1442.680, 38780.000
1443.853, 39150.000
1445.027, 38490.000
1446.199, 39130.000
1447.372, 39050.000
1448.545, 38900.000
1449.717, 39430.000
1450.889, 39020.000
1452.061, 38860.000
1453.233, 39640.000
1454.404, 39090.000
1455.576, 39310.000
1456.747, 39650.000
1457.918, 39160.000
1459.089, 39750.000
1460.260, 39860.000
1461.430, 39470.000
1462.601, 40240.000
1463.771, 39960.000
1464.941, 39610.000
1466.111, 40430.000
1467.280, 39800.000
1468.450, 39990.000
1469.619, 40550.000
1470.788, 39890.000
##END=



