##NAMES=Tremolite
##RRUFFID=R040109
##IDEAL CHEMISTRY=[box]Ca_2_Mg_5_Si_8_O_22_(OH)_2_
##LOCALITY=Cassiar, British Columbia, Canada
##OWNER=RRUFF
##SOURCE=University of Arizona Mineral Museum
##DESCRIPTION=Green fine-grained massive
##STATUS=The identification of this mineral has been confirmed by X-ray diffraction and chemical analysis
##URL=rruff.info/R040109
##MEASURED CHEMISTRY=[box]Ca_1.99_(Mg_0.90_Fe_0.08_Al_0.01_)_5_Si_8.01_O_22_(OH)_2_
93.37500, 4461.426
94.76800, 4698.000
96.16100, 4558.000
97.55400, 4591.000
98.94700, 4773.000
100.3400, 4756.000
101.7320, 4827.000
103.1240, 4867.000
104.5160, 5105.000
105.9080, 5196.000
107.3000, 5374.000
108.6910, 5462.000
110.0820, 5596.000
111.4730, 5824.000
112.8640, 6193.000
114.2540, 6592.000
115.6440, 6996.000
117.0340, 7278.712
118.4240, 7828.000
119.8130, 7834.000
121.2030, 7957.000
122.5920, 8212.000
123.9810, 7996.000
125.3690, 7599.000
126.7580, 7095.000
128.1460, 6570.000
129.5340, 6235.000
130.9220, 6092.000
132.3090, 5916.000
133.6960, 5873.000
135.0830, 5913.000
136.4700, 5830.000
137.8570, 6066.000
139.2430, 6026.000
140.6300, 6161.000
142.0160, 6126.000
143.4010, 6195.000
144.7870, 6144.000
146.1720, 6080.000
147.5570, 6160.000
148.9420, 6168.000
150.3270, 6382.000
151.7110, 6759.000
153.0960, 7321.000
154.4800, 7761.000
155.8630, 8174.000
157.2470, 8672.000
158.6300, 9417.000
160.0130, 10062.00
161.3960, 9733.000
162.7790, 9006.000
164.1610, 8246.000
165.5440, 7891.000
166.9260, 7465.000
168.3080, 7542.000
169.6890, 7851.000
171.0700, 8564.000
172.4520, 9204.000
173.8330, 10123.00
175.2130, 10947.00
176.5940, 11908.00
177.9740, 13452.00
179.3540, 13970.00
180.7340, 12750.00
182.1140, 10799.00
183.4930, 9090.000
184.8720, 8072.000
186.2510, 7600.000
187.6300, 7101.000
189.0080, 6935.000
190.3870, 6753.000
191.7650, 6828.000
193.1430, 6711.000
194.5200, 6725.000
195.8980, 6697.000
197.2750, 6668.975
198.6520, 6698.191
200.0290, 6680.000
201.4050, 6752.000
202.7820, 6810.000
204.1580, 6859.000
205.5340, 7062.000
206.9090, 7358.000
208.2850, 7582.000
209.6600, 7725.000
211.0350, 8055.000
212.4100, 8615.000
213.7840, 9211.000
215.1590, 10355.00
216.5330, 11510.00
217.9070, 12721.00
219.2810, 13994.00
220.6540, 15314.00
222.0270, 16810.00
223.4000, 17876.00
224.7730, 17950.00
226.1460, 16444.00
227.5180, 14822.00
228.8910, 13551.00
230.2630, 12787.00
231.6340, 12345.00
233.0060, 12028.00
234.3770, 11132.00
235.7480, 10131.00
237.1190, 9264.000
238.4900, 8519.000
239.8600, 8044.000
241.2310, 7843.000
242.6010, 7751.000
243.9700, 7762.000
245.3400, 7794.000
246.7090, 7967.000
248.0790, 8121.000
249.4480, 8158.000
250.8160, 8164.823
252.1850, 8164.000
253.5530, 7960.000
254.9210, 7767.000
256.2890, 7478.000
257.6570, 7435.000
259.0240, 7297.000
260.3910, 7237.000
261.7580, 7162.000
263.1250, 7232.000
264.4920, 7022.000
265.8580, 7044.000
267.2240, 6949.000
268.5900, 6858.000
269.9560, 6765.000
271.3210, 6708.213
272.6870, 6660.000
274.0520, 6631.000
275.4160, 6577.000
276.7810, 6595.000
278.1460, 6665.000
279.5100, 6610.000
280.8740, 6676.613
282.2370, 6666.000
283.6010, 6735.000
284.9640, 6812.000
286.3270, 6810.000
287.6900, 6872.000
289.0530, 7122.000
290.4160, 7117.000
291.7780, 7117.000
293.1400, 7182.000
294.5020, 7170.000
295.8630, 7148.000
297.2250, 7174.000
298.5860, 7364.000
299.9470, 7459.000
301.3080, 7609.000
302.6680, 7726.000
304.0290, 7568.000
305.3890, 7499.000
306.7490, 7529.000
308.1080, 7515.000
309.4680, 7391.053
310.8270, 7206.000
312.1860, 7116.000
313.5450, 7082.000
314.9030, 6906.000
316.2620, 6977.000
317.6200, 6959.000
318.9780, 6924.000
320.3360, 7042.000
321.6930, 6990.000
323.0510, 7115.000
324.4080, 7069.000
325.7650, 7161.000
327.1210, 7186.000
328.4780, 7374.000
329.8340, 7454.000
331.1900, 7549.000
332.5460, 7630.000
333.9020, 7840.000
335.2570, 7716.000
336.6120, 7993.000
337.9670, 7984.000
339.3220, 8553.000
340.6770, 8308.000
342.0310, 8568.000
343.3850, 8870.000
344.7390, 8936.000
346.0930, 9058.000
347.4460, 9152.000
348.7990, 9187.000
350.1530, 9371.000
351.5050, 9566.000
352.8580, 9572.000
354.2100, 9421.000
355.5630, 9239.000
356.9150, 9064.000
358.2670, 8917.000
359.6180, 9056.000
360.9690, 9228.000
362.3210, 9508.000
363.6720, 9936.000
365.0220, 10565.00
366.3730, 11221.00
367.7230, 11945.00
369.0730, 12586.00
370.4230, 12898.00
371.7730, 12407.00
373.1220, 11752.00
374.4710, 10864.00
375.8210, 10449.00
377.1690, 9965.000
378.5180, 9523.000
379.8660, 9316.000
381.2150, 8947.000
382.5630, 8920.000
383.9100, 9166.000
385.2580, 9288.000
386.6050, 9739.000
387.9520, 10253.00
389.2990, 11053.00
390.6460, 11425.00
391.9920, 12426.00
393.3390, 12596.00
394.6850, 12514.00
396.0310, 12014.00
397.3760, 11114.00
398.7220, 10240.00
400.0670, 9446.000
401.4120, 9077.000
402.7570, 8731.000
404.1010, 8637.000
405.4460, 8676.000
406.7900, 8751.000
408.1340, 8793.000
409.4780, 9074.000
410.8210, 9216.000
412.1650, 9579.000
413.5080, 9944.000
414.8510, 9984.000
416.1930, 10169.00
417.5360, 9902.000
418.8780, 9423.000
420.2200, 9178.000
421.5620, 8777.000
422.9040, 8505.000
424.2450, 8112.000
425.5860, 8128.000
426.9270, 7984.000
428.2680, 7985.000
429.6090, 8026.000
430.9490, 7995.000
432.2890, 8050.000
433.6290, 8241.000
434.9690, 8566.000
436.3090, 8354.000
437.6480, 8519.000
438.9870, 8158.000
440.3260, 8139.000
441.6650, 7897.000
443.0030, 7688.000
444.3420, 7562.000
445.6800, 7656.000
447.0180, 7521.000
448.3550, 7492.000
449.6930, 7522.000
451.0300, 7532.000
452.3670, 7503.000
453.7040, 7496.000
455.0410, 7619.000
456.3770, 7501.000
457.7130, 7584.000
459.0490, 7537.000
460.3850, 7488.000
461.7210, 7522.000
463.0560, 7500.616
464.3910, 7620.000
465.7260, 7575.000
467.0610, 7523.000
468.3950, 7662.000
469.7300, 7600.000
471.0640, 7612.000
472.3980, 7608.000
473.7310, 7566.000
475.0650, 7709.000
476.3980, 7600.000
477.7310, 7653.000
479.0640, 7715.000
480.3970, 7702.000
481.7290, 7779.000
483.0620, 7815.000
484.3940, 7890.000
485.7250, 7936.000
487.0570, 7872.000
488.3890, 7818.000
489.7200, 7915.000
491.0510, 7822.000
492.3820, 7846.000
493.7120, 7855.000
495.0430, 7993.000
496.3730, 7811.000
497.7030, 7876.000
499.0320, 7800.000
500.3620, 7939.000
501.6910, 7966.000
503.0200, 7922.000
504.3490, 8103.000
505.6780, 8037.000
507.0070, 8262.000
508.3350, 8275.000
509.6630, 8355.000
510.9910, 8688.000
512.3190, 8733.000
513.6460, 8971.000
514.9730, 8816.000
516.3000, 9093.000
517.6270, 9071.000
518.9540, 9136.000
520.2800, 9112.000
521.6070, 8966.000
522.9330, 9170.000
524.2590, 9158.000
525.5840, 9397.000
526.9100, 9470.000
528.2350, 9472.000
529.5600, 9752.000
530.8850, 9553.000
532.2090, 9428.000
533.5340, 9085.000
534.8580, 8818.000
536.1820, 8804.000
537.5060, 8633.000
538.8290, 8522.000
540.1520, 8475.000
541.4760, 8412.000
542.7990, 8367.328
544.1210, 8382.404
545.4440, 8314.000
546.7660, 8413.000
548.0880, 8407.000
549.4100, 8372.000
550.7320, 8382.000
552.0530, 8436.000
553.3750, 8315.000
554.6960, 8462.000
556.0170, 8281.000
557.3370, 8226.000
558.6580, 8313.000
559.9780, 8326.000
561.2980, 8265.000
562.6180, 8209.000
563.9380, 8240.000
565.2570, 8202.000
566.5760, 8192.000
567.8950, 8283.000
569.2140, 8209.000
570.5330, 8295.000
571.8510, 8322.000
573.1700, 8277.000
574.4880, 8316.000
575.8050, 8402.000
577.1230, 8351.000
578.4400, 8282.000
579.7580, 8394.000
581.0750, 8424.000
582.3910, 8419.000
583.7080, 8345.000
585.0240, 8540.000
586.3410, 8463.000
587.6570, 8384.000
588.9720, 8503.000
590.2880, 8508.000
591.6030, 8498.000
592.9180, 8466.000
594.2330, 8371.000
595.5480, 8430.000
596.8630, 8558.000
598.1770, 8552.000
599.4910, 8454.000
600.8050, 8506.000
602.1190, 8491.000
603.4320, 8553.000
604.7460, 8597.000
606.0590, 8605.000
607.3720, 8665.000
608.6850, 8622.000
609.9970, 8647.000
611.3090, 8641.804
612.6210, 8637.000
613.9330, 8640.000
615.2450, 8710.000
616.5570, 8753.000
617.8680, 8842.000
619.1790, 9047.000
620.4900, 9086.000
621.8010, 8817.000
623.1110, 8802.000
624.4210, 8980.000
625.7310, 9017.000
627.0410, 9160.000
628.3510, 8889.000
629.6600, 9195.000
630.9700, 9177.000
632.2790, 9252.000
633.5880, 9492.000
634.8960, 9332.000
636.2050, 9521.000
637.5130, 9559.000
638.8210, 9789.000
640.1290, 9813.000
641.4370, 10026.00
642.7440, 10313.00
644.0510, 10408.00
645.3580, 10657.00
646.6650, 11058.00
647.9720, 11395.00
649.2780, 11829.00
650.5840, 12239.00
651.8900, 12663.00
653.1960, 12921.00
654.5020, 13359.00
655.8070, 13284.00
657.1130, 13522.00
658.4180, 13647.00
659.7220, 14098.00
661.0270, 15040.00
662.3310, 15778.00
663.6360, 17154.00
664.9400, 19372.00
666.2440, 22329.00
667.5470, 25757.00
668.8510, 30912.00
670.1540, 35854.00
671.4570, 41738.00
672.7600, 45286.00
674.0620, 45760.00
675.3650, 44160.00
676.6670, 38841.00
677.9690, 33443.00
679.2710, 28029.00
680.5720, 23963.00
681.8740, 20753.00
683.1750, 18196.00
684.4760, 16905.00
685.7770, 15854.00
687.0770, 14926.00
688.3780, 14405.00
689.6780, 13902.00
690.9780, 13613.00
692.2780, 13261.00
693.5770, 12717.00
694.8770, 12048.00
696.1760, 11933.00
697.4750, 11294.00
698.7740, 11140.00
700.0720, 10819.00
701.3710, 10729.00
702.6690, 10557.00
703.9670, 10347.00
705.2650, 10121.00
706.5620, 10150.00
707.8600, 10252.00
709.1570, 10050.00
710.4540, 9806.000
711.7510, 9932.000
713.0470, 9804.000
714.3440, 9997.000
715.6400, 9812.000
716.9360, 9846.000
718.2320, 9751.000
719.5270, 9681.000
720.8230, 9891.000
722.1180, 9715.000
723.4130, 9846.000
724.7080, 9788.000
726.0020, 9769.000
727.2970, 9742.000
728.5910, 9778.243
729.8850, 9798.727
731.1790, 9884.000
732.4720, 9935.000
733.7660, 9986.000
735.0590, 10144.00
736.3520, 10250.00
737.6450, 10345.00
738.9370, 10594.00
740.2300, 10650.00
741.5220, 10722.00
742.8140, 10560.00
744.1060, 10507.00
745.3970, 10541.00
746.6890, 10496.00
747.9800, 10508.00
749.2710, 10387.00
750.5620, 10588.00
751.8530, 10395.00
753.1430, 10406.00
754.4330, 10235.00
755.7230, 10171.00
757.0130, 10135.00
758.3030, 9985.000
759.5920, 9969.000
760.8810, 9858.000
762.1700, 9874.000
763.4590, 9834.000
764.7480, 9874.000
766.0360, 9865.000
767.3250, 9781.000
768.6130, 9932.000
769.9010, 9788.000
771.1880, 9798.000
772.4760, 9895.000
773.7630, 9856.000
775.0500, 9958.000
776.3370, 9814.000
777.6240, 9882.000
778.9100, 10038.00
780.1960, 9916.000
781.4820, 9938.000
782.7680, 9856.000
784.0540, 9882.000
785.3390, 9872.000
786.6250, 9892.000
787.9100, 10017.00
789.1950, 9834.000
790.4790, 9987.000
791.7640, 9855.000
793.0480, 9958.000
794.3320, 10020.00
795.6160, 9905.000
796.9000, 10008.00
798.1830, 9929.000
799.4670, 10032.00
800.7500, 9956.000
802.0330, 9953.000
803.3160, 9993.000
804.5980, 9923.000
805.8800, 10106.00
807.1630, 9928.000
808.4450, 10092.00
809.7260, 10098.00
811.0080, 10068.00
812.2890, 9963.000
813.5700, 10054.00
814.8510, 9961.000
816.1320, 10060.00
817.4130, 10073.00
818.6930, 10048.00
819.9730, 10099.00
821.2530, 10153.00
822.5330, 10137.00
823.8130, 10164.00
825.0920, 10185.00
826.3710, 10180.00
827.6500, 10207.78
828.9290, 10188.00
830.2080, 10246.00
831.4860, 10273.00
832.7640, 10301.92
834.0420, 10303.28
835.3200, 10322.00
836.5980, 10282.00
837.8750, 10305.00
839.1520, 10301.00
840.4290, 10295.00
841.7060, 10338.00
842.9830, 10360.00
844.2590, 10318.00
845.5360, 10346.00
846.8120, 10433.00
848.0880, 10318.00
849.3630, 10355.00
850.6390, 10417.00
851.9140, 10367.32
853.1890, 10455.00
854.4640, 10435.00
855.7390, 10423.00
857.0130, 10604.00
858.2880, 10566.00
859.5620, 10368.00
860.8360, 10518.00
862.1100, 10579.00
863.3830, 10482.00
864.6560, 10578.00
865.9300, 10649.00
867.2030, 10647.00
868.4750, 10652.00
869.7480, 10697.00
871.0200, 10689.30
872.2920, 10742.00
873.5640, 10701.00
874.8360, 10692.00
876.1080, 10688.00
877.3790, 10752.00
878.6500, 10756.68
879.9220, 10826.00
881.1920, 10784.00
882.4630, 10834.00
883.7330, 10768.00
885.0040, 10814.00
886.2740, 10755.00
887.5440, 10947.00
888.8130, 10842.00
890.0830, 11023.00
891.3520, 10802.00
892.6210, 10926.00
893.8900, 11017.00
895.1590, 11031.00
896.4270, 10997.00
897.6950, 11001.00
898.9640, 11092.00
900.2320, 11204.00
901.4990, 11139.00
902.7670, 11208.00
904.0340, 11189.00
905.3010, 11311.00
906.5680, 11215.00
907.8350, 11351.00
909.1020, 11472.00
910.3680, 11486.00
911.6340, 11520.00
912.9000, 11480.00
914.1660, 11665.00
915.4320, 11616.00
916.6970, 11840.00
917.9620, 11752.00
919.2270, 11801.00
920.4920, 12194.00
921.7570, 12341.00
923.0210, 12713.00
924.2850, 13062.00
925.5500, 13642.00
926.8130, 14336.00
928.0770, 14764.00
929.3410, 15485.00
930.6040, 15925.00
931.8670, 16067.00
933.1300, 15779.00
934.3930, 15149.00
935.6550, 14502.00
936.9180, 14012.00
938.1800, 13478.00
939.4420, 13262.00
940.7030, 12921.00
941.9650, 12886.00
943.2260, 13046.00
944.4880, 13200.00
945.7490, 13262.00
947.0090, 13293.34
948.2700, 13413.00
949.5300, 13169.00
950.7910, 12968.00
952.0510, 12711.00
953.3110, 12636.00
954.5700, 12430.00
955.8300, 12161.00
957.0890, 12114.00
958.3480, 12074.00
959.6070, 12166.00
960.8660, 11990.00
962.1240, 11974.00
963.3830, 12247.00
964.6410, 11897.00
965.8990, 12012.00
967.1560, 11937.00
968.4140, 11950.00
969.6710, 11936.00
970.9280, 11855.00
972.1850, 11955.00
973.4420, 11894.13
974.6990, 12131.00
975.9550, 11891.00
977.2110, 11945.00
978.4680, 12001.00
979.7230, 11866.00
980.9790, 12113.00
982.2340, 11956.00
983.4900, 11885.00
984.7450, 12122.00
986.0000, 11916.00
987.2540, 12029.00
988.5090, 12132.00
989.7630, 12023.00
991.0170, 12206.00
992.2710, 12158.00
993.5250, 12156.00
994.7790, 12221.00
996.0320, 12188.00
997.2850, 12194.00
998.5380, 12385.00
999.7910, 12460.00
1001.044, 12224.00
1002.296, 12508.00
1003.548, 12320.00
1004.800, 12613.00
1006.052, 12481.00
1007.304, 12622.00
1008.555, 12798.00
1009.807, 12808.00
1011.058, 12970.00
1012.309, 13056.00
1013.559, 13284.00
1014.810, 13446.00
1016.060, 13637.00
1017.310, 13988.00
1018.560, 14328.00
1019.810, 14586.00
1021.060, 14867.00
1022.309, 15010.00
1023.558, 15503.00
1024.807, 15898.00
1026.056, 16796.00
1027.305, 17443.00
1028.553, 18439.00
1029.801, 18812.00
1031.049, 18793.00
1032.297, 17827.00
1033.545, 16846.00
1034.793, 15984.00
1036.040, 15389.00
1037.287, 14829.00
1038.534, 14351.00
1039.781, 14170.00
1041.027, 14077.00
1042.274, 14173.00
1043.520, 13816.00
1044.766, 14155.00
1046.012, 14290.00
1047.257, 14459.00
1048.503, 14878.00
1049.748, 15077.00
1050.993, 15992.00
1052.238, 16543.00
1053.483, 17827.00
1054.727, 19218.00
1055.971, 20999.00
1057.216, 23192.00
1058.459, 25673.00
1059.703, 26870.00
1060.947, 26705.00
1062.190, 25384.00
1063.433, 23445.00
1064.676, 21609.00
1065.919, 19975.00
1067.162, 18894.00
1068.404, 18125.00
1069.646, 17902.00
1070.888, 16931.00
1072.130, 16448.00
1073.372, 16005.00
1074.613, 15213.00
1075.855, 14714.00
1077.096, 14380.00
1078.337, 14055.00
1079.578, 13824.00
1080.818, 13886.00
1082.059, 13596.00
1083.299, 13555.00
1084.539, 13422.00
1085.779, 13335.00
1087.018, 13361.00
1088.258, 13266.00
1089.497, 13412.00
1090.736, 13335.00
1091.975, 13312.00
1093.213, 13315.00
1094.452, 13246.00
1095.690, 13142.00
1096.928, 13149.00
1098.166, 13012.00
1099.404, 13024.00
1100.642, 13147.00
1101.879, 13134.00
1103.116, 12984.00
1104.353, 12975.00
1105.590, 12890.00
1106.827, 13098.00
1108.063, 12887.00
1109.299, 13104.00
1110.536, 13030.00
1111.771, 12972.00
1113.007, 12924.00
1114.243, 12997.00
1115.478, 13010.00
1116.713, 12977.00
1117.948, 12960.00
1119.183, 12988.00
1120.418, 13046.00
1121.652, 13061.00
1122.886, 13254.00
1124.120, 13244.00
1125.354, 13193.00
1126.588, 13163.00
1127.821, 12990.00
1129.055, 13093.00
1130.288, 13042.00
1131.521, 13066.00
1132.753, 13116.00
1133.986, 13080.00
1135.218, 13046.00
1136.450, 13092.00
1137.682, 13120.00
1138.914, 13042.00
1140.146, 13170.00
1141.377, 13117.00
1142.609, 13104.00
1143.840, 13188.00
1145.071, 13021.00
1146.301, 13150.00
1147.532, 13172.00
1148.762, 13210.00
1149.992, 13308.00
1151.222, 13155.00
1152.452, 13105.00
1153.682, 13269.00
1154.911, 13354.00
1156.140, 13198.00
1157.369, 13315.00
1158.598, 13275.00
1159.827, 13121.00
1161.055, 13229.00
1162.284, 13305.00
1163.512, 13312.00
1164.740, 13329.00
1165.967, 13353.00
1167.195, 13404.00
1168.422, 13404.42
1169.650, 13420.33
1170.877, 13419.00
1172.103, 13432.00
1173.330, 13429.00
1174.557, 13452.00
1175.783, 13372.00
1177.009, 13462.00
1178.235, 13498.00
1179.461, 13372.00
1180.686, 13534.00
1181.912, 13454.00
1183.137, 13510.00
1184.362, 13482.00
1185.587, 13584.00
1186.811, 13456.00
1188.036, 13553.00
1189.260, 13563.00
1190.484, 13650.00
1191.708, 13659.00
1192.932, 13616.00
1194.155, 13730.00
1195.378, 13570.00
1196.602, 13707.00
1197.825, 13664.00
1199.047, 13673.00
1200.270, 13713.00
1201.492, 13822.00
1202.715, 13730.00
1203.937, 13904.00
1205.159, 13661.00
1206.380, 13795.00
1207.602, 13810.00
1208.823, 13862.00
1210.044, 13698.00
1211.265, 13778.00
1212.486, 13830.00
1213.707, 13975.00
1214.927, 13884.00
1216.147, 13949.00
1217.367, 13907.00
1218.587, 14011.00
1219.807, 14060.00
1221.027, 13969.00
1222.246, 13924.00
1223.465, 14091.00
1224.684, 13948.00
1225.903, 14137.00
1227.121, 14230.00
1228.340, 14181.00
1229.558, 14042.00
1230.776, 14198.00
1231.994, 14140.00
1233.212, 14124.00
1234.429, 14137.00
1235.646, 14254.00
1236.864, 14270.00
1238.081, 14247.00
1239.297, 14342.00
1240.514, 14322.00
1241.730, 14274.00
1242.947, 14289.00
1244.163, 14243.00
1245.378, 14337.00
1246.594, 14361.00
1247.810, 14433.00
1249.025, 14458.00
1250.240, 14444.94
1251.455, 14500.00
1252.670, 14415.00
1253.885, 14414.00
1255.099, 14445.00
1256.313, 14539.00
1257.527, 14580.00
1258.741, 14452.00
1259.955, 14662.00
1261.168, 14660.00
1262.382, 14560.00
1263.595, 14691.00
1264.808, 14674.00
1266.021, 14792.00
1267.233, 14784.60
1268.446, 14703.00
1269.658, 14723.00
1270.870, 14728.00
1272.082, 14733.21
1273.294, 14762.00
1274.505, 14789.00
1275.716, 14787.00
1276.928, 14796.00
1278.139, 14918.00
1279.349, 14748.00
1280.560, 14925.00
1281.770, 14924.00
1282.981, 14897.00
1284.191, 14956.00
1285.401, 14866.00
1286.610, 14968.00
1287.820, 14913.00
1289.029, 14882.00
1290.239, 15067.00
1291.448, 15048.00
1292.656, 15126.00
1293.865, 15000.00
1295.073, 15087.00
1296.282, 15133.00
1297.490, 15070.00
1298.698, 15171.00
1299.906, 15111.00
1301.113, 15230.00
1302.320, 15221.00
1303.528, 15166.00
1304.735, 15286.00
1305.942, 15384.00
1307.148, 15192.00
1308.355, 15329.00
1309.561, 15406.00
1310.767, 15364.00
1311.973, 15472.00
1313.179, 15314.00
1314.384, 15396.00
1315.590, 15427.00
1316.795, 15507.00
1318.000, 15538.00
1319.205, 15570.00
1320.410, 15552.00
1321.614, 15682.00
1322.819, 15639.00
1324.023, 15577.00
1325.227, 15775.00
1326.431, 15699.89
1327.634, 15854.00
1328.838, 15728.00
1330.041, 15680.00
1331.244, 15693.00
1332.447, 15679.24
1333.650, 15856.00
1334.852, 15794.00
1336.055, 15804.00
1337.257, 15937.00
1338.459, 15821.00
1339.661, 15989.00
1340.862, 15916.00
1342.064, 15956.00
1343.265, 16081.00
1344.466, 16002.00
1345.667, 16090.00
1346.868, 16028.00
1348.068, 16135.00
1349.269, 16233.00
1350.469, 16257.00
1351.669, 16281.22
1352.869, 16240.00
1354.069, 16281.00
1355.268, 16279.00
1356.468, 16346.00
1357.667, 16293.00
1358.866, 16423.00
1360.065, 16396.00
1361.263, 16311.00
1362.462, 16406.00
1363.660, 16376.00
1364.858, 16418.00
1366.056, 16488.00
1367.254, 16399.00
1368.451, 16560.00
1369.649, 16569.00
1370.846, 16576.00
1372.043, 16485.00
1373.240, 16585.81
1374.436, 16796.00
1375.633, 16678.00
1376.829, 16764.00
1378.025, 16684.00
1379.221, 16675.00
1380.417, 16730.00
1381.613, 16838.00
1382.808, 16841.00
1384.003, 16834.00
1385.199, 16871.00
1386.393, 16936.00
1387.588, 16892.00
1388.783, 16791.00
1389.977, 17065.00
1391.171, 16908.00
1392.365, 17048.00
1393.559, 16964.00
1394.753, 16955.00
1395.946, 17031.00
1397.140, 16934.00
1398.333, 17050.00
1399.526, 17090.00
1400.719, 17169.00
1401.911, 17145.00
1403.104, 17242.00
1404.296, 17152.00
1405.488, 17212.00
1406.680, 17185.00
1407.872, 17344.00
1409.063, 17196.00
1410.255, 17197.00
1411.446, 17507.00
1412.637, 17339.00
1413.828, 17414.00
1415.018, 17372.00
1416.209, 17497.00
1417.399, 17387.00
1418.589, 17517.00
1419.779, 17408.00
1420.969, 17541.00
1422.159, 17611.00
1423.348, 17538.00
1424.537, 17497.00
1425.726, 17550.82
1426.915, 17777.00
1428.104, 17616.00
1429.293, 17705.00
1430.481, 17736.00
1431.669, 17724.00
1432.857, 17798.00
1434.045, 17906.00
1435.233, 17961.00
1436.420, 17935.00
1437.608, 17944.00
1438.795, 18192.00
1439.982, 17956.00
1441.169, 17954.00
1442.355, 18219.00
1443.542, 18101.00
1444.728, 18076.00
1445.914, 18204.00
1447.100, 18090.00
1448.286, 18291.00
1449.472, 18186.00
1450.657, 18264.00
1451.842, 18274.00
1453.027, 18488.00
1454.212, 18289.00
1455.397, 18384.00
1456.581, 18526.00
1457.766, 18261.00
1458.950, 18633.00
1460.134, 18551.00
1461.318, 18454.00
1462.501, 18690.00
1463.685, 18433.00
1464.868, 18626.00
1466.051, 18705.00
1467.234, 18540.00
1468.417, 18876.00
1469.600, 18648.00
1470.782, 18818.00
1471.965, 18748.00
1473.147, 19014.00
1474.329, 18644.00
1475.510, 19029.00
1476.692, 18922.00
1477.873, 18831.00
1479.055, 18914.00
1480.236, 18917.00
1481.416, 18880.00
1482.597, 18975.65
1483.778, 19004.00
1484.958, 19100.00
1486.138, 19069.00
1487.318, 19107.00
1488.498, 19083.72
1489.678, 19046.32
1490.857, 19067.00
1492.037, 19024.00
1493.216, 19147.00
1494.395, 19302.00
1495.574, 19228.00
1496.752, 19187.00
1497.931, 19470.00
1499.109, 19085.00
1500.287, 19478.00
1501.465, 19170.00
1502.643, 19367.00
1503.820, 19214.00
1504.998, 19381.00
1506.175, 19337.00
1507.352, 19387.00
1508.529, 19294.00
1509.706, 19320.00
1510.882, 19552.00
1512.059, 19559.00
1513.235, 19630.00
1514.411, 19750.00
1515.587, 19648.00
1516.762, 19529.00
1517.938, 19741.00
1519.113, 19697.00
1520.288, 19672.00
1521.463, 19904.00
1522.638, 19954.00
1523.813, 19899.00
##END=



