##NAMES=Wattersite
##RRUFFID=R060626
##IDEAL CHEMISTRY=Hg^1+^_4_Hg^2+^O_2_(Cr^6+^O_4_)
##LOCALITY=Clear Creek claim, San Benito County, California, USA
##OWNER=RRUFF
##SOURCE=Michael Scott
##DESCRIPTION=Black metallic crystals associated with red cinnabar, white quartz, silver balls of liquid mercury. Crystals are twinned by a 2-fold rotation around [100].
##STATUS=The identification of this mineral has been confirmed by single-crystal X-ray diffraction.
##URL=rruff.info/R060626
118.147, 6439.907
118.629, 6693.988
119.111, 6960.023
119.593, 7229.866
120.075, 7487.261
120.558, 7737.077
121.040, 7967.362
121.522, 8166.052
122.004, 8326.987
122.486, 8470.805
122.968, 8611.194
123.450, 8746.537
123.932, 8872.400
124.414, 8985.891
124.897, 9088.324
125.379, 9180.997
125.861, 9260.236
126.343, 9333.869
126.825, 9414.189
127.307, 9500.110
127.789, 9578.713
128.271, 9630.462
128.753, 9664.938
129.236, 9708.700
129.718, 9775.867
130.200, 9855.883
130.682, 9922.304
131.164, 9972.946
131.646, 10022.010
132.128, 10078.550
132.610, 10143.140
133.093, 10229.590
133.575, 10368.540
134.057, 10547.560
134.539, 10662.500
135.021, 10700.940
135.503, 10697.970
135.985, 10714.190
136.467, 10753.300
136.949, 10786.830
137.432, 10798.070
137.914, 10785.170
138.396, 10771.930
138.878, 10763.540
139.360, 10754.430
139.842, 10726.230
140.324, 10676.850
140.806, 10613.950
141.288, 10540.020
141.771, 10449.160
142.253, 10364.780
142.735, 10291.810
143.217, 10229.140
143.699, 10167.530
144.181, 10102.340
144.663, 10042.470
145.145, 9994.559
145.628, 9962.546
146.110, 9935.997
146.592, 9913.066
147.074, 9893.044
147.556, 9877.210
148.038, 9862.995
148.520, 9853.227
149.002, 9851.866
149.484, 9864.347
149.967, 9879.145
150.449, 9893.540
150.931, 9908.055
151.413, 9921.396
151.895, 9935.653
152.377, 9949.192
152.859, 9958.048
153.342, 9948.107
153.824, 9945.637
154.306, 9962.368
154.788, 10024.330
155.270, 10071.160
155.752, 10088.810
156.234, 10084.850
156.716, 10085.700
157.198, 10088.450
157.680, 10102.900
158.163, 10134.660
158.645, 10198.600
159.127, 10266.060
159.609, 10329.050
160.091, 10388.020
160.573, 10449.910
161.055, 10530.750
161.538, 10608.250
162.020, 10661.850
162.502, 10640.340
162.984, 10629.940
163.466, 10680.880
163.948, 10796.370
164.430, 10902.630
164.912, 10963.010
165.394, 10992.720
165.876, 11010.640
166.359, 11016.630
166.841, 11018.730
167.323, 11016.560
167.805, 11007.040
168.287, 11015.300
168.769, 11077.840
169.251, 11169.530
169.733, 11243.710
170.216, 11261.550
170.698, 11260.170
171.180, 11273.950
171.662, 11310.250
172.144, 11355.040
172.626, 11391.480
173.108, 11425.760
173.590, 11477.320
174.072, 11565.210
174.555, 11674.490
175.037, 11790.800
175.519, 11920.290
176.001, 12040.330
176.483, 12109.540
176.965, 12137.770
177.447, 12177.240
177.929, 12276.500
178.412, 12411.640
178.894, 12535.500
179.376, 12623.830
179.858, 12705.730
180.340, 12841.410
180.822, 13027.070
181.304, 13189.850
181.786, 13257.860
182.268, 13252.560
182.751, 13234.820
183.233, 13229.130
183.715, 13220.850
184.197, 13181.210
184.679, 13109.440
185.161, 13011.060
185.643, 12854.710
186.125, 12661.530
186.607, 12526.900
187.090, 12506.320
187.572, 12572.790
188.054, 12638.300
188.536, 12697.210
189.018, 12779.450
189.500, 12909.020
189.982, 13085.660
190.464, 13335.070
190.947, 13737.590
191.429, 14253.920
191.911, 14592.530
192.393, 14720.380
192.875, 14751.660
193.357, 14845.810
193.839, 15002.770
194.321, 15188.340
194.803, 15389.860
195.286, 15606.800
195.768, 15851.200
196.250, 16138.360
196.732, 16428.760
197.214, 16652.779
197.696, 16807.250
198.178, 16914.100
198.661, 16997.609
199.143, 17059.529
199.625, 17043.250
200.107, 16950.350
200.589, 16771.211
201.071, 16466.461
201.553, 16018.610
202.035, 15511.050
202.517, 14977.510
202.999, 14412.840
203.482, 13862.300
203.964, 13319.820
204.446, 12798.680
204.928, 12347.690
205.410, 11971.050
205.892, 11650.290
206.374, 11383.690
206.857, 11176.790
207.339, 10983.800
207.821, 10795.260
208.303, 10614.900
208.785, 10466.660
209.267, 10355.500
209.749, 10265.770
210.231, 10184.970
210.713, 10112.030
211.195, 10052.600
211.678, 10011.790
212.160, 9987.952
212.642, 9957.075
213.124, 9914.227
213.606, 9873.051
214.088, 9850.034
214.570, 9853.847
215.052, 9848.872
215.535, 9820.932
216.017, 9770.064
216.499, 9750.331
216.981, 9774.917
217.463, 9812.341
217.945, 9824.649
218.427, 9794.936
218.909, 9781.735
219.391, 9808.139
219.874, 9878.675
220.356, 9908.936
220.838, 9878.615
221.320, 9828.607
221.802, 9811.350
222.284, 9842.339
222.766, 9872.755
223.248, 9889.761
223.731, 9892.193
224.213, 9891.540
224.695, 9883.771
225.177, 9876.955
225.659, 9884.282
226.141, 9916.749
226.623, 9942.798
227.105, 9949.728
227.587, 9930.942
228.070, 9928.488
228.552, 9949.563
229.034, 9981.756
229.516, 10005.310
229.998, 10016.450
230.480, 10024.810
230.962, 10031.900
231.444, 10035.390
231.926, 10047.620
232.409, 10078.170
232.891, 10111.730
233.373, 10118.670
233.855, 10076.630
234.337, 10044.330
234.819, 10045.390
235.301, 10095.150
235.783, 10128.160
236.266, 10140.500
236.748, 10138.260
237.230, 10132.780
237.712, 10125.100
238.194, 10112.540
238.676, 10091.530
239.158, 10053.500
239.640, 10033.680
240.122, 10040.540
240.605, 10062.150
241.087, 10073.190
241.569, 10067.210
242.051, 10060.860
242.533, 10061.540
243.015, 10074.130
243.497, 10080.620
243.980, 10080.180
244.462, 10073.720
244.944, 10061.200
245.426, 10031.670
245.908, 10012.160
246.390, 10017.340
246.872, 10065.040
247.354, 10090.530
247.836, 10085.330
248.318, 10060.250
248.801, 10039.680
249.283, 10021.180
249.765, 10010.690
250.247, 10015.310
250.729, 10052.420
251.211, 10058.530
251.693, 10022.300
252.176, 9960.064
252.658, 9910.178
253.140, 9873.802
253.622, 9848.958
254.104, 9838.213
254.586, 9853.567
255.068, 9851.156
255.550, 9823.536
256.032, 9781.854
256.514, 9753.279
256.997, 9742.849
257.479, 9736.642
257.961, 9727.193
258.443, 9709.146
258.925, 9703.599
259.407, 9716.157
259.889, 9737.895
260.371, 9747.652
260.854, 9741.103
261.336, 9730.108
261.818, 9716.676
262.300, 9694.646
262.782, 9692.198
263.264, 9717.777
263.746, 9757.897
264.228, 9779.014
264.711, 9773.822
265.193, 9766.608
265.675, 9771.902
266.157, 9797.515
266.639, 9799.789
267.121, 9764.520
267.603, 9716.535
268.085, 9717.308
268.567, 9788.249
269.050, 9847.794
269.532, 9846.480
270.014, 9766.144
270.496, 9730.228
270.978, 9756.176
271.460, 9812.029
271.942, 9834.050
272.424, 9815.002
272.906, 9787.968
273.389, 9766.839
273.871, 9752.546
274.353, 9736.886
274.835, 9716.390
275.317, 9699.397
275.799, 9706.232
276.281, 9742.813
276.763, 9773.548
277.246, 9774.771
277.728, 9743.752
278.210, 9739.957
278.692, 9772.878
279.174, 9818.134
279.656, 9833.941
280.138, 9817.385
280.620, 9795.126
281.103, 9772.061
281.585, 9748.590
282.067, 9750.636
282.549, 9783.721
283.031, 9704.634
283.513, 9805.764
283.995, 9863.147
284.477, 9879.136
284.959, 9729.746
285.441, 9793.907
285.924, 9772.487
286.406, 9747.559
286.888, 9841.777
287.370, 9716.441
287.852, 9808.770
288.334, 9814.211
288.816, 9859.419
289.298, 9800.729
289.781, 9794.247
290.263, 9825.766
290.745, 9868.686
291.227, 9893.057
291.709, 9900.710
292.191, 9902.863
292.673, 9904.814
293.155, 9904.251
293.638, 9891.980
294.120, 9867.028
294.602, 9841.253
295.084, 9824.573
295.566, 9817.101
296.048, 9819.112
296.530, 9839.981
297.012, 9867.246
297.494, 9873.983
297.977, 9860.277
298.459, 9841.432
298.941, 9826.769
299.423, 9817.649
299.905, 9818.062
300.387, 9835.497
300.869, 9858.769
301.351, 9871.831
301.833, 9875.016
302.316, 9876.287
302.798, 9879.898
303.280, 9885.750
303.762, 9894.424
304.244, 9909.032
304.726, 9922.615
305.208, 9921.281
305.690, 9907.993
306.173, 9903.785
306.655, 9939.779
307.137, 9988.156
307.619, 10011.050
308.101, 9984.495
308.583, 9949.152
309.065, 9941.114
309.547, 9953.954
310.030, 9961.613
310.512, 9940.581
310.994, 9911.589
311.476, 9894.997
311.958, 9899.761
312.440, 9910.054
312.922, 9923.127
313.404, 9935.513
313.886, 9937.558
314.369, 9907.595
314.851, 9876.104
315.333, 9867.931
315.815, 9897.059
316.297, 9925.911
316.779, 9940.074
317.261, 9942.791
317.743, 9940.588
318.225, 9925.690
318.708, 9914.096
319.190, 9917.837
319.672, 9946.484
320.154, 9964.705
320.636, 9950.174
321.118, 9921.836
321.600, 9908.343
322.082, 9936.476
322.565, 9962.807
323.047, 9969.189
323.529, 9948.967
324.011, 9932.426
324.493, 9920.080
324.975, 9914.520
325.457, 9918.733
325.939, 9897.269
326.422, 9855.951
326.904, 9938.093
327.386, 9990.268
327.868, 10014.082
328.350, 9924.603
328.832, 9981.422
329.314, 9979.610
329.796, 9975.394
330.278, 10020.520
330.760, 9984.086
331.243, 10038.119
331.725, 10070.192
332.207, 10081.486
332.689, 10009.761
333.171, 10045.236
333.653, 10037.751
334.135, 10028.504
334.617, 10079.068
335.100, 10059.290
335.582, 10027.860
336.064, 10017.520
336.546, 10016.940
337.028, 10021.280
337.510, 10032.680
337.992, 10039.880
338.474, 10040.090
338.957, 10036.580
339.439, 10036.390
339.921, 10037.880
340.403, 10047.890
340.885, 10077.200
341.367, 10128.160
341.849, 10153.840
342.331, 10148.200
342.813, 10125.460
343.296, 10108.970
343.778, 10099.130
344.260, 10088.710
344.742, 10070.040
345.224, 10046.270
345.706, 10041.910
346.188, 10060.470
346.670, 10084.330
347.152, 10088.190
347.635, 10076.020
348.117, 10071.350
348.599, 10084.790
349.081, 10111.110
349.563, 10142.430
350.045, 10178.610
350.527, 10209.110
351.009, 10223.430
351.491, 10223.700
351.974, 10213.090
352.456, 10178.720
352.938, 10146.880
353.420, 10159.370
353.902, 10209.700
354.384, 10256.610
354.866, 10266.490
355.349, 10257.160
355.831, 10252.210
356.313, 10260.180
356.795, 10269.060
357.277, 10268.330
357.759, 10261.260
358.241, 10256.700
358.723, 10259.120
359.205, 10266.300
359.688, 10277.390
360.170, 10293.660
360.652, 10309.560
361.134, 10320.050
361.616, 10328.690
362.098, 10341.560
362.580, 10369.490
363.062, 10394.470
363.544, 10403.230
364.027, 10389.340
364.509, 10391.300
364.991, 10431.740
365.473, 10487.310
365.955, 10532.590
366.437, 10563.020
366.919, 10584.070
367.401, 10597.420
367.884, 10603.470
368.366, 10597.940
368.848, 10549.800
369.330, 10510.790
369.812, 10516.060
370.294, 10613.970
370.776, 10686.890
371.258, 10717.830
371.741, 10715.290
372.223, 10715.060
372.705, 10716.070
373.187, 10720.730
373.669, 10729.660
374.151, 10741.460
374.633, 10762.670
375.115, 10799.590
375.597, 10841.070
376.079, 10859.740
376.562, 10847.100
377.044, 10842.210
377.526, 10866.840
378.008, 10922.200
378.490, 10961.010
378.972, 10981.920
379.454, 10991.160
379.936, 10992.350
380.419, 10985.960
380.901, 10988.080
381.383, 11007.010
381.865, 11037.970
382.347, 11064.630
382.829, 11087.190
383.311, 11111.300
383.793, 11147.240
384.276, 11189.540
384.758, 11220.860
385.240, 11232.780
385.722, 11237.280
386.204, 11249.940
386.686, 11269.580
387.168, 11290.220
387.650, 11305.080
388.132, 11319.620
388.615, 11340.850
389.097, 11369.910
389.579, 11404.730
390.061, 11446.040
390.543, 11491.590
391.025, 11537.110
391.507, 11594.500
391.989, 11641.120
392.471, 11653.240
392.954, 11625.710
393.436, 11611.850
393.918, 11649.320
394.400, 11707.210
394.882, 11753.260
395.364, 11770.650
395.846, 11783.470
396.328, 11792.290
396.810, 11798.870
397.293, 11820.820
397.775, 11881.840
398.257, 11944.830
398.739, 11988.700
399.221, 11986.970
399.703, 11995.710
400.185, 12006.440
400.668, 12027.670
401.150, 12087.420
401.632, 12097.444
402.114, 12150.954
402.596, 12193.907
403.078, 12226.880
403.560, 12219.940
404.042, 12263.830
404.524, 12316.660
405.007, 12344.804
405.489, 12415.578
405.971, 12476.000
406.453, 12526.632
406.935, 12538.135
407.417, 12600.163
407.899, 12646.620
408.381, 12685.340
408.863, 12732.160
409.346, 12786.760
409.828, 12841.940
410.310, 12894.730
410.792, 12950.690
411.274, 13029.810
411.756, 13127.710
412.238, 13208.990
412.720, 13229.150
413.203, 13221.310
413.685, 13256.690
414.167, 13349.180
414.649, 13448.730
415.131, 13498.990
415.613, 13520.710
416.095, 13555.500
416.577, 13619.080
417.060, 13704.960
417.542, 13828.840
418.024, 13986.310
418.506, 14110.230
418.988, 14123.710
419.470, 14102.640
419.952, 14116.030
420.434, 14205.130
420.916, 14303.040
421.398, 14391.310
421.881, 14472.200
422.363, 14556.130
422.845, 14658.430
423.327, 14753.700
423.809, 14829.340
424.291, 14875.220
424.773, 14923.340
425.255, 14969.220
425.738, 15019.840
426.220, 15087.280
426.702, 15193.490
427.184, 15282.930
427.666, 15339.980
428.148, 15364.370
428.630, 15399.540
429.112, 15452.080
429.595, 15503.480
430.077, 15534.230
430.559, 15538.520
431.041, 15555.040
431.523, 15592.770
432.005, 15641.820
432.487, 15679.250
432.969, 15704.870
433.451, 15720.980
433.934, 15731.630
434.416, 15734.640
434.898, 15715.140
435.380, 15669.190
435.862, 15619.090
436.344, 15596.240
436.826, 15591.670
437.308, 15577.410
437.790, 15541.430
438.273, 15490.780
438.755, 15434.630
439.237, 15372.350
439.719, 15300.640
440.201, 15211.660
440.683, 15114.430
441.165, 15017.440
441.647, 14919.690
442.129, 14827.190
442.612, 14744.680
443.094, 14670.290
443.576, 14599.300
444.058, 14538.110
444.540, 14473.100
445.022, 14396.730
445.504, 14305.740
445.987, 14217.100
446.469, 14134.210
446.951, 14054.130
447.433, 13972.100
447.915, 13872.440
448.397, 13794.820
448.879, 13756.850
449.361, 13748.610
449.843, 13710.980
450.326, 13633.630
450.808, 13543.510
451.290, 13448.690
451.772, 13341.950
452.254, 13266.640
452.736, 13231.790
453.218, 13216.000
453.700, 13187.960
454.182, 13147.470
454.665, 13100.330
455.147, 13045.910
455.629, 12987.500
456.111, 12935.490
456.593, 12890.230
457.075, 12854.150
457.557, 12842.530
458.039, 12841.750
458.522, 12818.870
459.004, 12763.070
459.486, 12691.540
459.968, 12613.370
460.450, 12532.430
460.932, 12461.540
461.414, 12423.016
461.896, 12414.211
462.379, 12398.193
462.861, 12375.351
463.343, 12325.231
463.825, 12310.334
464.307, 12281.321
464.789, 12251.724
465.271, 12234.010
465.753, 12195.960
466.235, 12148.950
466.717, 12097.600
467.200, 12064.910
467.682, 12075.630
468.164, 12083.720
468.646, 12069.730
469.128, 12022.920
469.610, 11981.290
470.092, 11940.840
470.574, 11908.720
471.057, 11900.770
471.539, 11927.440
472.021, 11935.490
472.503, 11897.780
472.985, 11830.320
473.467, 11794.040
473.949, 11780.073
474.431, 11760.693
474.914, 11736.188
475.396, 11691.210
475.878, 11672.669
476.360, 11643.527
476.842, 11613.956
477.324, 11599.136
477.806, 11557.135
478.288, 11542.080
478.770, 11516.271
479.253, 11487.960
479.735, 11456.840
480.217, 11432.050
480.699, 11414.130
481.181, 11405.300
481.663, 11402.570
482.145, 11402.980
482.627, 11405.570
483.109, 11411.040
483.592, 11427.180
484.074, 11445.690
484.556, 11448.100
485.038, 11416.090
485.520, 11380.510
486.002, 11345.530
486.484, 11307.980
486.966, 11297.270
487.448, 11341.730
487.931, 11386.010
488.413, 11376.770
488.895, 11285.740
489.377, 11225.040
489.859, 11215.850
490.341, 11240.850
490.823, 11257.290
491.306, 11266.410
491.788, 11261.200
492.270, 11231.660
492.752, 11182.750
493.234, 11138.030
493.716, 11096.560
494.198, 11071.750
494.680, 11092.990
495.162, 11142.660
495.645, 11175.520
496.127, 11175.460
496.609, 11157.830
497.091, 11132.370
497.573, 11101.140
498.055, 11071.330
498.537, 11036.950
499.019, 11012.260
499.501, 11012.850
499.984, 11045.950
500.466, 11071.210
500.948, 11074.800
501.430, 11063.710
501.912, 11044.850
502.394, 11008.550
502.876, 10977.660
503.358, 10953.080
503.841, 10935.830
504.323, 10930.600
504.805, 10943.320
505.287, 10959.500
505.769, 10974.080
506.251, 10987.420
506.733, 10993.060
507.215, 10987.590
507.698, 10980.420
508.180, 10985.540
508.662, 11003.020
509.144, 11014.040
509.626, 11010.880
510.108, 11001.860
510.590, 11011.970
511.072, 10971.717
511.554, 11020.885
512.036, 11048.346
512.519, 11055.268
513.001, 10980.133
513.483, 11010.958
513.965, 10999.318
514.447, 10985.938
514.929, 11031.676
515.411, 10968.477
515.893, 11013.276
516.375, 11007.070
516.858, 10993.270
517.340, 10980.400
517.822, 10974.490
518.304, 10989.290
518.786, 11000.160
519.268, 10994.190
519.750, 10964.710
520.232, 10942.910
520.715, 10932.100
521.197, 10926.010
521.679, 10917.710
522.161, 10905.180
522.643, 10895.960
523.125, 10887.050
523.607, 10884.920
524.089, 10922.140
524.571, 11003.150
525.054, 11061.360
525.536, 11037.690
526.018, 10959.250
526.500, 10927.250
526.982, 10946.570
527.464, 10976.290
527.946, 10980.640
528.429, 10967.380
528.911, 10950.020
529.393, 10932.730
529.875, 10912.080
530.357, 10878.610
530.839, 10839.160
531.321, 10811.910
531.803, 10784.585
532.286, 10825.120
532.768, 10849.183
533.250, 10857.658
533.732, 10803.860
534.214, 10830.476
534.696, 10824.865
535.178, 10835.210
535.660, 10852.320
536.142, 10858.680
536.625, 10846.550
537.107, 10825.060
537.589, 10815.390
538.071, 10820.360
538.553, 10825.130
539.035, 10822.640
539.517, 10815.070
539.999, 10818.660
540.481, 10834.580
540.964, 10844.900
541.446, 10819.080
541.928, 10776.520
542.410, 10770.570
542.892, 10818.990
543.374, 10874.450
543.856, 10893.800
544.338, 10887.650
544.820, 10877.380
545.303, 10863.310
545.785, 10855.310
546.267, 10862.760
546.749, 10883.680
547.231, 10899.700
547.713, 10900.170
548.195, 10898.710
548.677, 10905.580
549.159, 10938.520
549.642, 10938.990
550.124, 10883.980
550.606, 10814.730
551.088, 10779.940
551.570, 10784.870
552.052, 10812.020
552.534, 10868.630
553.016, 10940.130
553.499, 10974.880
553.981, 10971.960
554.463, 10954.820
554.945, 10928.600
555.427, 10898.940
555.909, 10885.770
556.391, 10890.960
556.873, 10893.670
557.356, 10860.970
557.838, 10817.780
558.320, 10804.460
558.802, 10854.640
559.284, 10900.840
559.766, 10890.950
560.248, 10849.600
560.730, 10830.170
561.213, 10883.960
561.695, 10929.730
562.177, 10931.690
562.659, 10883.630
563.141, 10856.290
563.623, 10855.970
564.105, 10869.590
564.587, 10893.950
565.069, 10939.110
565.552, 10955.250
566.034, 10932.470
566.516, 10892.590
566.998, 10863.880
567.480, 10846.610
567.962, 10847.340
568.444, 10878.590
568.926, 10920.640
569.408, 10926.460
569.891, 10901.700
570.373, 10880.880
570.855, 10897.030
571.337, 10922.700
571.819, 10927.110
572.301, 10905.640
572.783, 10877.990
573.265, 10842.540
573.747, 10811.700
574.230, 10797.910
574.712, 10829.130
575.194, 10847.450
575.676, 10829.700
576.158, 10794.030
576.640, 10784.160
577.122, 10817.470
577.604, 10848.020
578.086, 10862.510
578.569, 10861.930
579.051, 10859.620
579.533, 10855.500
580.015, 10850.700
580.497, 10844.030
580.979, 10836.690
581.461, 10836.500
581.943, 10844.630
582.426, 10857.710
582.908, 10873.640
583.390, 10891.620
583.872, 10910.760
584.354, 10939.220
584.836, 10958.570
585.318, 10949.330
585.800, 10918.860
586.282, 10889.920
586.765, 10865.260
587.247, 10849.340
587.729, 10849.040
588.211, 10869.320
588.693, 10874.160
589.175, 10846.720
589.657, 10818.050
590.140, 10810.240
590.622, 10830.500
591.104, 10850.610
591.586, 10870.830
592.068, 10888.100
592.550, 10896.300
593.032, 10895.610
593.514, 10892.560
593.996, 10890.350
594.479, 10886.320
594.961, 10870.970
595.443, 10846.820
595.925, 10829.010
596.407, 10821.720
596.889, 10829.040
597.371, 10867.000
597.853, 10940.660
598.335, 10989.370
598.818, 10965.220
599.300, 10914.490
599.782, 10876.080
600.264, 10862.480
600.746, 10854.770
601.228, 10851.930
601.710, 10853.750
602.192, 10859.310
602.674, 10866.570
603.157, 10883.190
603.639, 10915.610
604.121, 10958.160
604.603, 10985.750
605.085, 10997.640
605.567, 11000.780
606.049, 10994.460
606.531, 10983.000
607.013, 10982.250
607.496, 10993.980
607.978, 10998.440
608.460, 10969.190
608.942, 10926.230
609.424, 10894.190
609.906, 10879.700
610.388, 10877.150
610.870, 10889.910
611.353, 10912.190
611.835, 10933.440
612.317, 10969.040
612.799, 10983.320
613.281, 10954.870
613.763, 10893.370
614.245, 10876.320
614.727, 10924.540
615.209, 10970.770
615.692, 10975.600
616.174, 10940.200
616.656, 10921.250
617.138, 10920.930
617.620, 10925.330
618.102, 10913.430
618.584, 10895.490
619.067, 10903.960
619.549, 10955.800
620.031, 11004.970
620.513, 10995.180
620.995, 10956.820
621.477, 10942.450
621.959, 11006.240
622.441, 11062.910
622.923, 11069.650
623.406, 11036.060
623.888, 11020.910
624.370, 11048.450
624.852, 11073.100
625.334, 11076.480
625.816, 11056.020
626.298, 11049.250
626.780, 11060.090
627.263, 11074.710
627.745, 11077.150
628.227, 11069.920
628.709, 11081.700
629.191, 11119.610
629.673, 11160.840
630.155, 11178.560
630.637, 11178.630
631.119, 11173.620
631.602, 11161.680
632.084, 11153.960
632.566, 11166.220
633.048, 11189.440
633.530, 11146.072
634.012, 11183.828
634.494, 11201.889
634.976, 11201.319
635.458, 11126.305
635.941, 11147.419
636.423, 11130.009
636.905, 11111.021
637.387, 11124.450
637.869, 11102.038
638.351, 11110.989
638.833, 11112.327
639.315, 11090.700
639.797, 11059.470
640.280, 11047.151
640.762, 11030.247
641.244, 11008.995
641.726, 10970.380
642.208, 10953.880
642.690, 10949.670
643.172, 10956.420
643.654, 10986.570
644.137, 11004.720
644.619, 10983.560
645.101, 10931.600
645.583, 10899.480
646.065, 10913.220
646.547, 10930.100
647.029, 10934.440
647.511, 10924.410
647.994, 10925.280
648.476, 10940.650
648.958, 10956.870
649.440, 10958.420
649.922, 10947.300
650.404, 10949.260
650.886, 10967.430
651.368, 10993.300
651.851, 11019.630
652.333, 11045.840
652.815, 11072.460
653.297, 11107.020
653.779, 11130.940
654.261, 11124.550
654.743, 11099.620
655.225, 11081.210
655.707, 11093.840
656.190, 11095.730
656.672, 11060.300
657.154, 10996.430
657.636, 10980.070
658.118, 11039.830
658.600, 11090.310
659.082, 11080.730
659.564, 11013.300
660.046, 10986.930
660.529, 11005.290
661.011, 11034.620
661.493, 11051.670
661.975, 11055.870
662.457, 11041.280
662.939, 11002.460
663.421, 10967.800
663.903, 10963.540
664.385, 10975.580
664.868, 10985.690
665.350, 10983.180
665.832, 10984.740
666.314, 11001.060
666.796, 11023.810
667.278, 11032.130
667.760, 11013.860
668.242, 11001.640
668.724, 11001.570
669.207, 11013.560
669.689, 11046.480
670.171, 11028.353
670.653, 11054.824
671.135, 11070.470
671.617, 11075.870
672.099, 11040.345
672.581, 11056.950
673.064, 11036.220
673.546, 11046.270
674.028, 11065.860
674.510, 11075.540
674.992, 11072.700
675.474, 11059.700
675.956, 11024.200
676.438, 10986.460
676.920, 10968.610
677.403, 10988.330
677.885, 10996.650
678.367, 10984.860
678.849, 10966.100
679.331, 10966.230
679.813, 10986.610
680.295, 11004.670
680.778, 11016.400
681.260, 10986.153
681.742, 11015.673
682.224, 11030.684
682.706, 11031.968
683.188, 10978.405
683.670, 10995.664
684.152, 10984.541
684.634, 10972.255
685.117, 10999.481
685.599, 10953.896
686.081, 10980.497
686.563, 10978.281
687.045, 10989.256
687.527, 10971.671
688.009, 10962.907
688.491, 10958.540
688.973, 10972.630
689.456, 10997.040
689.938, 11017.200
690.420, 11033.260
690.902, 11039.760
691.384, 11015.400
691.866, 10976.680
692.348, 10966.430
692.830, 11012.950
693.312, 11061.740
693.795, 11067.700
694.277, 11049.490
694.759, 11040.970
695.241, 11069.650
695.723, 11088.700
696.205, 11079.410
696.687, 11050.480
697.169, 11034.800
697.652, 11035.930
698.134, 11041.970
698.616, 11053.080
699.098, 11065.910
699.580, 11054.700
700.062, 11019.560
700.544, 10990.810
701.026, 11000.090
701.508, 11025.510
701.991, 11032.110
702.473, 11017.280
702.955, 11003.840
703.437, 11010.500
703.919, 11020.700
704.401, 11019.420
704.883, 10992.970
705.365, 10982.140
705.847, 11005.880
706.330, 11031.920
706.812, 11023.600
707.294, 10967.080
707.776, 10936.210
708.258, 10943.060
708.740, 10970.280
709.222, 11000.550
709.705, 11030.360
710.187, 11040.470
710.669, 11015.110
711.151, 10982.420
711.633, 10966.030
712.115, 10964.950
712.597, 10976.250
713.079, 11023.000
713.561, 11057.500
714.044, 11050.160
714.526, 11008.000
715.008, 10994.080
715.490, 11026.480
715.972, 11057.280
716.454, 11067.810
716.936, 11059.660
717.418, 11047.530
717.901, 11029.840
718.383, 11024.410
718.865, 11064.860
719.347, 11120.740
719.829, 11121.950
720.311, 11063.260
720.793, 11009.130
721.275, 11001.350
721.757, 11018.740
722.240, 11048.260
722.722, 11101.460
723.204, 11129.650
723.686, 11113.170
724.168, 11077.860
724.650, 11039.890
725.132, 10991.390
725.614, 10974.250
726.096, 11000.950
726.579, 11040.890
727.061, 11045.790
727.543, 11022.120
728.025, 11001.090
728.507, 10989.580
728.989, 10987.740
729.471, 11000.030
729.953, 11021.800
730.435, 11043.480
730.918, 11010.910
731.400, 11031.950
731.882, 10954.873
732.364, 11050.694
732.846, 11104.547
733.328, 11118.685
733.810, 10974.158
734.292, 11034.513
734.775, 11012.761
735.257, 11031.660
735.739, 11030.570
736.221, 10983.544
736.703, 11043.512
737.185, 11077.508
737.667, 11086.928
738.149, 10998.162
738.631, 11036.183
739.114, 11023.393
739.596, 11008.520
740.078, 11064.385
740.560, 10989.899
741.042, 11044.643
741.524, 11047.801
742.006, 11074.567
742.489, 11039.650
742.971, 11066.140
743.453, 11076.300
743.935, 11065.490
744.417, 11056.730
744.899, 11085.710
745.381, 11134.210
745.863, 11154.360
746.345, 11133.030
746.828, 11101.590
747.310, 11070.480
747.792, 11047.720
748.274, 11043.330
748.756, 11081.790
749.238, 11108.130
749.720, 11110.140
750.202, 11100.400
750.684, 11102.070
751.167, 11068.527
751.649, 11108.385
752.131, 11130.424
752.613, 11135.604
753.095, 11073.429
753.577, 11098.229
754.059, 11088.174
754.541, 11076.688
755.023, 11113.730
755.506, 11061.352
755.988, 11097.624
756.470, 11098.509
756.952, 11091.190
757.434, 11068.668
757.916, 11093.287
758.398, 11106.462
758.880, 11108.810
759.362, 11067.897
759.845, 11082.846
760.327, 11075.408
760.809, 11067.053
761.291, 11089.863
761.773, 11055.243
762.255, 11077.560
762.737, 11077.147
763.219, 11087.139
763.702, 11074.604
764.184, 11069.027
764.666, 11085.982
765.148, 11065.400
765.630, 11049.671
766.112, 11079.011
766.594, 11097.409
767.076, 11105.456
767.558, 11072.144
768.041, 11092.238
768.523, 11090.931
769.005, 11088.744
769.487, 11104.570
769.969, 11082.510
770.451, 11058.928
770.933, 11093.235
771.416, 11113.492
771.898, 11120.450
772.380, 11074.285
772.862, 11096.719
773.344, 11091.660
773.826, 11085.476
774.308, 11117.563
774.790, 11079.125
775.272, 11110.606
775.755, 11114.177
776.237, 11130.521
776.719, 11119.205
777.201, 11116.433
777.683, 11141.329
778.165, 11120.130
778.647, 11120.010
779.129, 11121.570
779.612, 11123.270
780.094, 11122.090
780.576, 11112.350
781.058, 11108.060
781.540, 11113.830
782.022, 11127.430
782.504, 11148.240
782.986, 11189.460
783.468, 11202.290
783.951, 11172.560
784.433, 11125.090
784.915, 11098.140
785.397, 11091.000
785.879, 11100.530
786.361, 11135.180
786.843, 11167.730
787.325, 11162.440
787.807, 11136.330
788.290, 11121.210
788.772, 11145.790
789.254, 11162.880
789.736, 11146.530
790.218, 11117.070
790.700, 11119.710
791.182, 11171.070
791.664, 11204.670
792.146, 11200.420
792.629, 11173.960
793.111, 11156.670
793.593, 11148.740
794.075, 11153.880
794.557, 11179.920
795.039, 11213.050
795.521, 11246.000
796.003, 11276.560
796.485, 11299.170
796.968, 11316.280
797.450, 11319.820
797.932, 11299.180
798.414, 11264.080
798.896, 11252.660
799.378, 11269.290
799.860, 11292.270
800.343, 11319.450
800.825, 11343.340
801.307, 11342.500
801.789, 11320.730
802.271, 11296.135
802.753, 11333.269
803.235, 11355.418
803.717, 11363.389
804.199, 11314.712
804.682, 11339.183
805.164, 11334.340
805.646, 11328.295
806.128, 11363.062
806.610, 11349.830
807.092, 11316.767
807.574, 11338.516
808.056, 11346.960
808.539, 11342.812
809.021, 11306.630
809.503, 11279.590
809.985, 11269.980
810.467, 11269.140
810.949, 11286.380
811.431, 11298.670
811.913, 11282.690
812.395, 11239.700
812.878, 11227.520
813.360, 11269.180
813.842, 11306.440
814.324, 11312.280
814.806, 11291.740
815.288, 11285.480
815.770, 11293.540
816.252, 11298.580
816.734, 11279.450
817.217, 11256.670
817.699, 11263.830
818.181, 11297.280
818.663, 11317.320
819.145, 11288.260
819.627, 11258.530
820.109, 11250.930
820.591, 11265.290
821.073, 11294.700
821.556, 11346.700
822.038, 11393.840
822.520, 11422.330
823.002, 11433.430
823.484, 11424.750
823.966, 11398.240
824.448, 11377.030
824.930, 11377.290
825.413, 11389.450
825.895, 11413.370
826.377, 11447.640
826.859, 11461.710
827.341, 11418.550
827.823, 11382.810
828.305, 11377.800
828.787, 11402.710
829.269, 11447.840
829.752, 11516.450
830.234, 11575.160
830.716, 11602.820
831.198, 11605.050
831.680, 11583.730
832.162, 11542.570
832.644, 11508.160
833.127, 11493.500
833.609, 11492.340
834.091, 11506.660
834.573, 11537.540
835.055, 11553.590
835.537, 11541.830
836.019, 11542.000
836.501, 11584.990
836.983, 11658.080
837.466, 11677.180
837.948, 11643.990
838.430, 11607.750
838.912, 11605.680
839.394, 11612.850
839.876, 11604.230
840.358, 11580.040
840.840, 11555.320
841.322, 11529.790
841.805, 11509.650
842.287, 11492.630
842.769, 11480.550
843.251, 11505.250
843.733, 11575.720
844.215, 11626.970
844.697, 11599.030
845.179, 11535.920
845.661, 11549.170
846.144, 11623.530
846.626, 11675.070
847.108, 11623.000
847.590, 11566.200
848.072, 11571.930
848.554, 11635.010
849.036, 11657.420
849.518, 11614.160
850.000, 11574.730
850.483, 11567.210
850.965, 11582.520
851.447, 11587.300
851.929, 11581.690
852.411, 11564.740
852.893, 11520.940
853.375, 11477.110
853.857, 11460.830
854.340, 11467.920
854.822, 11482.670
855.304, 11507.080
855.786, 11531.900
856.268, 11559.410
856.750, 11585.300
857.232, 11585.700
857.714, 11556.660
858.196, 11540.320
858.679, 11555.620
859.161, 11590.320
859.643, 11635.670
860.125, 11683.670
860.607, 11710.960
861.089, 11683.820
861.571, 11656.860
862.054, 11653.230
862.536, 11667.650
863.018, 11684.380
863.500, 11709.260
863.982, 11720.480
864.464, 11709.190
864.946, 11686.820
865.428, 11688.660
865.910, 11704.050
866.393, 11685.350
866.875, 11716.599
867.357, 11735.725
867.839, 11743.376
868.321, 11705.189
868.803, 11725.390
869.285, 11706.630
869.767, 11685.130
870.250, 11659.410
870.732, 11643.630
871.214, 11676.800
871.696, 11755.640
872.178, 11789.960
872.660, 11746.660
873.142, 11694.190
873.624, 11713.830
874.106, 11772.450
874.589, 11823.160
875.071, 11861.660
875.553, 11874.700
876.035, 11829.580
876.517, 11776.100
876.999, 11766.140
877.481, 11809.590
877.963, 11830.850
878.445, 11817.680
878.928, 11804.590
879.410, 11845.900
879.892, 11912.690
880.374, 11946.890
880.856, 11934.990
881.338, 11910.450
881.820, 11866.760
882.302, 11833.220
882.784, 11832.330
883.267, 11861.340
883.749, 11812.305
884.231, 11896.681
884.713, 11948.676
885.195, 11970.023
885.677, 11868.943
886.159, 11925.953
886.641, 11919.608
887.123, 11944.630
887.606, 11955.700
888.088, 11978.970
888.570, 12016.540
889.052, 12072.630
889.534, 12088.720
890.016, 12043.460
890.498, 11995.920
890.981, 11972.150
891.463, 11971.440
891.945, 11995.670
892.427, 12042.740
892.909, 12088.130
893.391, 12116.080
893.873, 12134.590
894.355, 12150.490
894.837, 12162.750
895.320, 12165.340
895.802, 12143.960
896.284, 12129.140
896.766, 12127.960
897.248, 12138.920
897.730, 12164.820
898.212, 12204.400
898.694, 12225.430
899.177, 12202.970
899.659, 12169.710
900.141, 12168.450
900.623, 12184.620
901.105, 12186.630
901.587, 12155.600
902.069, 12120.470
902.551, 12077.480
903.033, 12040.180
903.516, 12036.810
903.998, 12069.740
904.480, 12094.260
904.962, 12100.800
905.444, 12097.890
905.926, 12086.870
906.408, 12076.050
906.890, 12081.930
907.372, 12121.250
907.855, 12148.480
908.337, 12139.830
908.819, 12120.010
909.301, 12111.830
909.783, 12120.720
910.265, 12109.280
910.747, 12072.780
911.229, 12034.690
911.711, 12020.590
912.194, 12019.760
912.676, 12011.960
913.158, 11994.070
913.640, 11984.780
914.122, 12000.720
914.604, 12020.980
915.086, 12033.970
915.568, 12039.400
916.050, 12039.420
916.533, 12032.830
917.015, 12027.000
917.497, 12029.270
917.979, 12034.770
918.461, 12030.680
918.943, 12019.460
919.425, 12013.160
919.907, 12028.150
920.390, 12039.580
920.872, 12025.120
921.354, 11996.670
921.836, 12005.010
922.318, 12064.630
922.800, 12100.110
923.282, 12078.360
923.765, 12034.560
924.247, 12040.460
924.729, 12078.100
925.211, 12098.880
925.693, 12061.260
926.175, 12032.930
926.657, 12056.820
927.139, 12101.830
927.621, 12118.880
928.104, 12095.270
928.586, 12083.720
929.068, 12091.480
929.550, 12105.520
930.032, 12113.620
930.514, 12115.380
930.996, 12107.690
931.478, 12088.690
931.960, 12071.910
932.443, 12061.180
932.925, 12058.930
933.407, 12072.020
933.889, 12106.310
934.371, 12115.840
934.853, 12097.200
935.335, 12066.010
935.817, 12024.590
936.299, 11980.440
936.782, 11947.960
937.264, 11928.490
937.746, 11928.700
938.228, 11972.600
938.710, 12017.480
939.192, 12041.390
939.674, 12046.830
940.156, 12050.000
940.638, 12052.250
941.121, 12046.810
941.603, 12030.600
942.085, 12006.910
942.567, 11969.430
943.049, 11929.830
943.531, 11920.110
944.013, 11986.010
944.495, 12038.850
944.978, 12032.990
945.460, 11997.950
945.942, 11972.970
946.424, 11956.390
946.906, 11959.440
947.388, 11987.970
947.870, 12019.530
948.352, 12022.130
948.834, 12010.450
949.317, 12016.790
949.799, 12049.630
950.281, 12068.260
950.763, 12042.730
951.245, 12006.260
951.727, 11977.690
952.209, 11957.130
952.692, 11947.990
953.174, 11950.920
953.656, 11959.520
954.138, 11974.760
954.620, 11990.250
955.102, 11991.700
955.584, 11982.690
956.066, 11978.950
956.548, 11992.500
957.031, 12006.580
957.513, 12018.870
957.995, 12027.100
958.477, 12020.250
958.959, 11995.700
959.441, 11992.060
959.923, 12026.530
960.405, 12066.770
960.888, 12077.330
961.370, 12063.670
961.852, 12030.760
962.334, 11952.420
962.816, 11910.860
963.298, 11940.720
963.780, 11994.170
964.262, 12039.860
964.744, 12077.910
965.227, 12082.950
965.709, 12052.080
966.191, 12017.840
966.673, 12011.040
967.155, 12012.820
967.637, 12001.430
968.119, 11976.050
968.601, 11959.260
969.083, 11953.450
969.566, 11961.510
970.048, 11994.770
970.530, 12039.560
971.012, 12029.200
971.494, 11971.550
971.976, 11931.170
972.458, 11949.250
972.940, 11977.930
973.422, 11975.730
973.905, 11957.710
974.387, 11951.650
974.869, 11963.830
975.351, 11985.490
975.833, 12022.330
976.315, 12056.860
976.797, 12064.390
977.279, 12050.890
977.761, 12040.180
978.244, 12035.570
978.726, 12028.450
979.208, 11995.500
979.690, 11971.030
980.172, 11991.920
980.654, 12064.060
981.136, 12098.010
981.619, 12088.440
982.101, 12057.170
982.583, 11995.250
983.065, 11930.960
983.547, 11943.950
984.029, 12013.160
984.511, 12064.170
984.993, 12042.470
985.475, 12020.370
985.958, 12030.290
986.440, 12055.130
986.922, 12071.070
987.404, 12080.200
987.886, 12060.770
988.368, 12003.630
988.850, 11939.450
989.332, 11885.040
989.815, 11854.410
990.297, 11879.240
990.779, 11983.300
991.261, 12055.700
991.743, 12054.850
992.225, 12034.270
992.707, 12017.700
993.189, 12005.570
993.671, 12000.870
994.154, 12003.380
994.636, 12008.040
995.118, 12010.830
995.600, 12015.220
996.082, 12027.520
996.564, 12044.260
997.046, 12053.890
997.528, 12056.940
998.010, 12048.240
998.493, 12021.310
998.975, 11991.330
999.457, 11984.540
999.939, 11996.290
1000.421, 12010.790
1000.903, 12024.650
1001.385, 12041.020
1001.867, 12071.500
1002.349, 12098.310
1002.832, 12105.090
1003.314, 12089.230
1003.796, 12073.610
1004.278, 12059.720
1004.760, 12039.080
1005.242, 11990.190
1005.724, 11939.070
1006.206, 11939.870
1006.689, 11981.550
1007.171, 12018.600
1007.653, 12037.220
1008.135, 12042.660
1008.617, 12026.290
1009.099, 12006.130
1009.581, 12026.920
1010.063, 12086.840
1010.545, 12119.810
1011.028, 12108.520
1011.510, 12083.420
1011.992, 12068.760
1012.474, 12058.560
1012.956, 12043.970
1013.438, 12018.210
1013.920, 12011.870
1014.402, 12035.980
1014.885, 12058.730
1015.367, 12057.310
1015.849, 12039.500
1016.331, 12035.240
1016.813, 12042.150
1017.295, 12047.010
1017.777, 12037.230
1018.259, 12029.790
1018.741, 12040.560
1019.224, 12057.750
1019.706, 12053.430
1020.188, 12021.350
1020.670, 12003.200
1021.152, 12007.070
1021.634, 12020.450
1022.116, 12034.670
1022.598, 12045.860
1023.081, 12043.940
1023.563, 12022.230
1024.045, 12019.000
1024.527, 12057.050
1025.009, 12098.030
1025.491, 12125.130
1025.973, 12139.150
1026.455, 12143.410
1026.938, 12138.980
1027.420, 12137.850
1027.902, 12150.940
1028.384, 12165.110
1028.866, 12172.440
1029.348, 12174.100
1029.830, 12172.950
1030.312, 12170.110
1030.794, 12163.550
1031.276, 12153.580
1031.759, 12139.850
1032.241, 12115.570
1032.723, 12089.340
1033.205, 12079.820
1033.687, 12089.830
1034.169, 12104.500
1034.651, 12125.690
1035.133, 12140.980
1035.616, 12139.150
1036.098, 12126.010
1036.580, 12147.010
1037.062, 12199.980
1037.544, 12228.380
1038.026, 12190.390
1038.508, 12142.410
1038.990, 12144.670
1039.473, 12169.410
1039.955, 12172.050
1040.437, 12127.380
1040.919, 12093.240
1041.401, 12070.830
1041.883, 12058.900
1042.365, 12059.200
1042.847, 12068.820
1043.329, 12082.500
1043.812, 12099.490
1044.294, 12112.690
1044.776, 12103.900
1045.258, 12108.120
1045.740, 12159.730
1046.222, 12231.810
1046.704, 12220.500
1047.186, 12123.750
1047.668, 12060.080
1048.151, 12072.160
1048.633, 12105.320
1049.115, 12106.040
1049.597, 12092.860
1050.079, 12089.020
1050.561, 12101.750
1051.043, 12118.080
1051.525, 12141.550
1052.008, 12160.240
1052.490, 12160.960
1052.972, 12150.840
1053.454, 12150.030
1053.936, 12158.190
1054.418, 12173.290
1054.900, 12218.380
1055.382, 12241.770
1055.865, 12207.710
1056.347, 12147.260
1056.829, 12106.520
1057.311, 12085.330
1057.793, 12085.930
1058.275, 12111.840
1058.757, 12138.620
1059.239, 12142.970
1059.721, 12135.980
1060.203, 12127.480
1060.686, 12118.680
1061.168, 12112.240
1061.650, 12107.340
1062.132, 12108.950
1062.614, 12123.260
1063.096, 12142.360
1063.578, 12147.720
1064.060, 12142.000
1064.543, 12131.220
1065.025, 12110.670
1065.507, 12095.680
1065.989, 12090.230
1066.471, 12092.550
1066.953, 12106.280
1067.435, 12131.300
1067.917, 12135.160
1068.400, 12116.320
1068.882, 12098.250
1069.364, 12104.290
1069.846, 12113.210
1070.328, 12101.420
1070.810, 12074.900
1071.292, 12073.740
1071.774, 12106.770
1072.256, 12139.920
1072.739, 12168.230
1073.221, 12187.190
1073.703, 12181.700
1074.185, 12165.030
1074.667, 12163.410
1075.149, 12186.880
1075.631, 12202.880
1076.113, 12189.470
1076.596, 12184.400
1077.078, 12219.130
1077.560, 12279.280
1078.042, 12263.930
1078.524, 12186.220
1079.006, 12130.210
1079.488, 12174.850
1079.970, 12212.250
1080.453, 12161.450
1080.935, 12075.450
1081.417, 12040.120
1081.899, 12067.320
1082.381, 12090.750
1082.863, 12106.500
1083.345, 12120.740
1083.827, 12146.080
1084.309, 12168.130
1084.792, 12159.040
1085.274, 12122.280
1085.756, 12117.700
1086.238, 12174.790
1086.720, 12222.690
1087.202, 12246.200
1087.684, 12248.330
1088.166, 12209.740
1088.648, 12156.820
1089.131, 12172.530
1089.613, 12104.726
1090.095, 12196.061
1090.577, 12248.766
1091.059, 12264.916
1091.541, 12135.031
1092.023, 12193.722
1092.505, 12176.840
1092.988, 12197.380
1093.470, 12144.320
1093.952, 12160.950
1094.434, 12193.360
1094.916, 12208.540
1095.398, 12211.150
1095.880, 12208.440
1096.362, 12197.090
1096.844, 12192.290
1097.327, 12194.700
1097.809, 12203.470
1098.291, 12219.900
1098.773, 12240.970
1099.255, 12269.680
1099.737, 12302.830
1100.219, 12314.910
1100.701, 12281.350
1101.183, 12256.810
1101.666, 12253.590
1102.148, 12263.890
1102.630, 12273.380
1103.112, 12284.610
1103.594, 12308.850
1104.076, 12352.980
1104.558, 12383.250
1105.040, 12380.180
1105.523, 12360.990
1106.005, 12330.100
1106.487, 12290.610
1106.969, 12275.740
1107.451, 12283.640
1107.933, 12291.790
1108.415, 12288.370
1108.897, 12284.600
1109.380, 12298.620
1109.862, 12312.530
1110.344, 12296.790
1110.826, 12229.200
1111.308, 12218.970
1111.790, 12275.970
1112.272, 12333.780
1112.754, 12335.420
1113.236, 12311.750
1113.719, 12296.240
1114.201, 12288.550
1114.683, 12281.040
1115.165, 12266.810
1115.647, 12263.960
1116.129, 12279.140
1116.611, 12296.970
1117.093, 12287.920
1117.575, 12267.200
1118.058, 12281.440
1118.540, 12339.530
1119.022, 12354.720
1119.504, 12341.827
1119.986, 12365.795
1120.468, 12380.816
1120.950, 12387.370
1121.432, 12372.380
1121.915, 12332.960
1122.397, 12276.590
1122.879, 12212.180
1123.361, 12170.350
1123.843, 12190.060
1124.325, 12224.860
1124.807, 12231.650
1125.289, 12208.330
1125.771, 12210.410
1126.254, 12238.180
1126.736, 12275.450
1127.218, 12331.840
1127.700, 12375.340
1128.182, 12360.940
1128.664, 12318.450
1129.146, 12305.460
1129.628, 12337.260
1130.110, 12355.750
1130.593, 12354.560
1131.075, 12356.730
1131.557, 12403.690
1132.039, 12453.130
1132.521, 12434.310
1133.003, 12358.470
1133.485, 12312.670
1133.967, 12331.470
1134.450, 12349.020
1134.932, 12354.820
1135.414, 12354.650
1135.896, 12359.960
1136.378, 12365.530
1136.860, 12353.260
1137.342, 12318.390
1137.824, 12303.800
1138.307, 12345.560
1138.789, 12387.930
1139.271, 12414.210
1139.753, 12425.390
1140.235, 12414.920
1140.717, 12389.910
1141.199, 12381.080
1141.681, 12405.890
1142.163, 12425.820
1142.646, 12418.780
1143.128, 12400.580
1143.610, 12378.740
1144.092, 12354.140
1144.574, 12358.900
1145.056, 12389.830
1145.538, 12405.370
1146.020, 12356.250
1146.502, 12315.930
1146.985, 12350.710
1147.467, 12414.710
1147.949, 12434.110
1148.431, 12395.590
1148.913, 12397.000
1149.395, 12445.150
1149.877, 12482.290
1150.359, 12446.320
1150.842, 12391.150
1151.324, 12358.040
1151.806, 12348.100
1152.288, 12360.360
1152.770, 12400.610
1153.252, 12438.770
1153.734, 12472.340
1154.216, 12494.190
1154.698, 12492.540
1155.181, 12476.490
1155.663, 12449.630
1156.145, 12413.700
1156.627, 12410.400
1157.109, 12459.270
1157.591, 12499.990
1158.073, 12514.600
1158.555, 12516.400
1159.037, 12529.650
1159.520, 12545.660
1160.002, 12545.710
1160.484, 12521.320
1160.966, 12505.910
1161.448, 12510.830
1161.930, 12515.850
1162.412, 12510.330
1162.894, 12499.270
1163.377, 12497.310
1163.859, 12502.170
1164.341, 12509.200
1164.823, 12525.510
1165.305, 12525.520
1165.787, 12486.750
1166.269, 12448.650
1166.751, 12442.070
1167.234, 12460.760
1167.716, 12461.320
1168.198, 12448.700
1168.680, 12447.640
1169.162, 12483.370
1169.644, 12518.090
1170.126, 12546.180
1170.608, 12559.720
1171.090, 12540.980
1171.573, 12493.030
1172.055, 12471.380
1172.537, 12477.200
1173.019, 12482.900
1173.501, 12458.080
1173.983, 12440.640
1174.465, 12451.890
1174.947, 12484.240
1175.430, 12535.710
1175.912, 12605.920
1176.394, 12638.720
1176.876, 12624.620
1177.358, 12603.700
1177.840, 12601.290
1178.322, 12609.970
1178.804, 12635.690
1179.286, 12668.740
1179.769, 12664.950
1180.251, 12620.950
1180.733, 12600.470
1181.215, 12622.590
1181.697, 12652.000
1182.179, 12651.700
1182.661, 12645.570
1183.143, 12661.310
1183.625, 12698.600
1184.108, 12709.880
1184.590, 12691.480
1185.072, 12679.620
1185.554, 12694.220
1186.036, 12704.530
1186.518, 12653.810
1187.000, 12592.160
1187.482, 12592.260
1187.965, 12678.370
1188.447, 12709.980
1188.929, 12678.100
1189.411, 12649.870
1189.893, 12668.230
1190.375, 12699.000
1190.857, 12701.970
1191.339, 12687.420
1191.822, 12672.060
1192.304, 12658.080
1192.786, 12642.320
1193.268, 12620.930
1193.750, 12615.810
1194.232, 12666.120
1194.714, 12724.940
1195.196, 12711.800
1195.678, 12657.100
1196.161, 12642.160
1196.643, 12708.460
1197.125, 12746.560
1197.607, 12747.900
1198.089, 12731.070
1198.571, 12702.070
1199.053, 12672.520
1199.535, 12663.510
1200.017, 12670.110
1200.500, 12666.850
1200.982, 12635.690
1201.464, 12629.430
1201.946, 12662.300
1202.428, 12697.400
1202.910, 12674.890
1203.392, 12635.890
1203.874, 12651.080
1204.357, 12718.690
1204.839, 12758.400
1205.321, 12747.690
1205.803, 12733.880
1206.285, 12727.410
1206.767, 12718.680
1207.249, 12679.350
1207.731, 12635.490
1208.214, 12632.860
1208.696, 12678.240
1209.178, 12727.730
1209.660, 12785.560
1210.142, 12823.220
1210.624, 12829.170
1211.106, 12817.170
1211.588, 12806.080
1212.070, 12794.240
1212.552, 12775.880
1213.035, 12746.400
1213.517, 12734.970
1213.999, 12751.790
1214.481, 12766.870
1214.963, 12766.610
1215.445, 12760.420
1215.927, 12769.420
1216.409, 12783.980
1216.892, 12784.500
1217.374, 12757.570
1217.856, 12749.220
1218.338, 12768.600
1218.820, 12792.080
1219.302, 12815.190
1219.784, 12826.820
1220.266, 12785.230
1220.749, 12719.860
1221.231, 12692.120
1221.713, 12738.190
1222.195, 12781.030
1222.677, 12819.750
1223.159, 12847.570
1223.641, 12859.940
1224.123, 12858.360
1224.605, 12833.420
1225.088, 12798.380
1225.570, 12783.370
1226.052, 12822.090
1226.534, 12840.100
1227.016, 12833.350
1227.498, 12815.890
1227.980, 12791.650
1228.462, 12768.260
1228.944, 12755.390
1229.427, 12753.960
1229.909, 12767.010
1230.391, 12813.700
1230.873, 12836.270
1231.355, 12823.710
1231.837, 12814.110
1232.319, 12859.310
1232.801, 12918.330
1233.284, 12927.910
1233.766, 12897.420
1234.248, 12869.730
1234.730, 12846.560
1235.212, 12840.360
1235.694, 12855.900
1236.176, 12874.020
1236.658, 12866.640
1237.141, 12856.640
1237.623, 12880.120
1238.105, 12930.300
1238.587, 12964.140
1239.069, 12977.720
1239.551, 12973.610
1240.033, 12948.530
1240.515, 12924.030
1240.997, 12929.580
1241.479, 12944.050
1241.962, 12942.180
1242.444, 12925.570
1242.926, 12916.730
1243.408, 12916.710
1243.890, 12928.830
1244.372, 12957.680
1244.854, 12978.790
1245.336, 12950.590
1245.819, 12912.580
1246.301, 12906.030
1246.783, 12929.870
1247.265, 12943.370
1247.747, 12944.300
1248.229, 12945.370
1248.711, 12948.480
1249.193, 12955.100
1249.676, 12977.120
1250.158, 12995.440
1250.640, 12982.670
1251.122, 12946.510
1251.604, 12940.350
1252.086, 12965.620
1252.568, 13002.900
1253.050, 13055.900
1253.532, 13081.960
1254.015, 13006.750
1254.497, 12921.360
1254.979, 12906.510
1255.461, 12949.670
1255.943, 12982.530
1256.425, 13005.200
1256.907, 13023.400
1257.389, 13037.710
1257.871, 13049.610
1258.354, 13067.230
1258.836, 13074.420
1259.318, 13060.640
1259.800, 13027.980
1260.282, 12978.530
1260.764, 12917.610
1261.246, 12883.540
1261.728, 12894.020
1262.211, 12912.430
1262.693, 12925.910
1263.175, 12935.680
1263.657, 12939.210
1264.139, 12941.440
1264.621, 12972.610
1265.103, 13021.780
1265.585, 13047.450
1266.068, 13031.040
1266.550, 13005.620
1267.032, 12971.170
1267.514, 12945.330
1267.996, 12939.560
1268.478, 12947.390
1268.960, 12951.380
1269.442, 12951.270
1269.924, 12944.070
1270.407, 12914.040
1270.889, 12917.150
1271.371, 12972.740
1271.853, 13031.840
1272.335, 13062.200
1272.817, 13079.370
1273.299, 13130.020
1273.781, 13189.770
1274.264, 13206.080
1274.746, 13134.930
1275.228, 13088.880
1275.710, 13066.790
1276.192, 12993.314
1276.674, 13092.367
1277.156, 13149.541
1277.638, 13167.084
1278.120, 13026.304
1278.603, 13089.974
1279.085, 13071.704
1279.567, 13050.076
1280.049, 13142.513
1280.531, 13024.761
1281.013, 13115.388
1281.495, 13122.835
1281.977, 13168.352
1282.459, 13131.431
1282.942, 13119.979
1283.424, 13190.983
1283.906, 13216.328
1284.388, 13169.917
1284.870, 13131.410
1285.352, 13133.040
1285.834, 13123.480
1286.316, 13141.770
1286.799, 13167.600
1287.281, 13179.620
1287.763, 13177.670
1288.245, 13171.070
1288.727, 13159.790
1289.209, 13143.490
1289.691, 13107.880
1290.173, 13086.250
1290.656, 13101.480
1291.138, 13126.520
1291.620, 13141.030
1292.102, 13147.210
1292.584, 13161.390
1293.066, 13177.300
1293.548, 13174.920
1294.030, 13135.420
1294.512, 13099.460
1294.995, 13069.790
1295.477, 13049.160
1295.959, 13035.170
1296.441, 13033.790
1296.923, 13077.190
1297.405, 13143.180
1297.887, 13178.710
1298.369, 13171.280
1298.851, 13178.110
1299.334, 13176.370
1299.816, 13178.090
1300.298, 13177.620
1300.780, 13174.360
##END=



