##NAMES=Wulfenite
##RRUFFID=R050149
##IDEAL CHEMISTRY=Pb^2+^Mo^6+^O_4_
##LOCALITY=Chapacase mine, Sierra Cerrillias District, Tocopilla, Chile
##OWNER=RRUFF
##SOURCE=Jim McGlasson
##DESCRIPTION=Orange thin tabular crystals
##STATUS=The identification of this mineral has been confirmed by X-ray diffraction.
##URL=rruff.info/R050149
22.467, 165.000
23.881, 190.000
25.295, 204.000
26.709, 228.000
28.123, 230.000
29.536, 231.000
30.949, 246.000
32.362, 242.000
33.774, 252.000
35.186, 258.000
36.598, 258.000
38.010, 266.000
39.422, 271.000
40.833, 265.000
42.244, 284.000
43.655, 279.000
45.065, 298.000
46.475, 324.000
47.885, 347.000
49.295, 366.000
50.705, 437.000
52.114, 512.000
53.523, 660.000
54.932, 975.000
56.340, 1556.000
57.748, 2462.000
59.156, 3250.000
60.564, 3198.000
61.972, 2658.000
63.379, 2049.000
64.786, 1701.000
66.193, 1591.000
67.599, 1542.000
69.005, 1551.000
70.411, 1527.000
71.817, 1457.000
73.223, 1283.000
74.628, 1174.000
76.033, 1072.000
77.438, 964.000
78.842, 915.000
80.247, 910.000
81.651, 924.000
83.054, 914.000
84.458, 879.000
85.861, 879.000
87.264, 886.000
88.667, 886.000
90.069, 930.000
91.472, 965.000
92.874, 1018.000
94.275, 1082.000
95.677, 1092.000
97.078, 1146.000
98.479, 1168.000
99.880, 1177.000
101.280, 1090.000
102.681, 993.000
104.081, 911.000
105.481, 862.000
106.880, 832.000
108.279, 758.000
109.678, 743.000
111.077, 687.000
112.476, 679.000
113.874, 697.000
115.272, 651.000
116.670, 659.000
118.067, 659.000
119.465, 665.000
120.862, 655.000
122.259, 658.000
123.655, 665.000
125.051, 655.000
126.447, 668.000
127.843, 668.000
129.239, 671.000
130.634, 687.000
132.029, 683.000
133.424, 709.000
134.819, 679.000
136.213, 695.000
137.607, 719.000
139.001, 730.000
140.394, 734.000
141.788, 748.000
143.181, 747.000
144.574, 738.000
145.966, 738.000
147.359, 766.000
148.751, 776.000
150.143, 783.000
151.534, 781.000
152.926, 799.000
154.317, 837.000
155.708, 842.000
157.098, 882.000
158.489, 896.000
159.879, 968.000
161.269, 918.000
162.658, 961.000
164.048, 967.000
165.437, 974.000
166.826, 965.000
168.215, 958.000
169.603, 946.000
170.991, 896.000
172.379, 905.000
173.767, 871.000
175.154, 848.000
176.542, 856.000
177.929, 838.000
179.315, 860.000
180.702, 862.000
182.088, 896.000
183.474, 936.000
184.860, 960.000
186.245, 931.000
187.630, 976.000
189.015, 970.000
190.400, 953.000
191.785, 923.000
193.169, 884.000
194.553, 848.000
195.937, 832.000
197.320, 745.000
198.704, 737.000
200.087, 687.000
201.469, 660.000
202.852, 641.000
204.234, 635.000
205.616, 608.000
206.998, 586.000
208.380, 586.000
209.761, 579.000
211.142, 567.000
212.523, 538.000
213.904, 537.000
215.284, 541.000
216.664, 544.000
218.044, 550.000
219.424, 524.000
220.803, 520.000
222.182, 529.000
223.561, 518.000
224.940, 524.000
226.318, 513.000
227.696, 508.000
229.074, 516.000
230.452, 527.000
231.830, 519.000
233.207, 528.000
234.584, 525.000
235.960, 510.000
237.337, 521.000
238.713, 523.000
240.089, 530.000
241.465, 529.000
242.840, 518.000
244.216, 539.000
245.591, 542.000
246.966, 562.000
248.340, 537.000
249.714, 550.000
251.089, 554.000
252.462, 571.000
253.836, 567.000
255.209, 586.000
256.582, 567.000
257.955, 591.000
259.328, 581.000
260.700, 567.000
262.072, 598.000
263.444, 601.000
264.816, 630.000
266.187, 624.000
267.559, 636.000
268.929, 621.000
270.300, 636.000
271.671, 655.000
273.041, 668.000
274.411, 660.000
275.780, 683.000
277.150, 711.000
278.519, 695.000
279.888, 742.000
281.257, 729.000
282.626, 790.000
283.994, 793.000
285.362, 823.000
286.730, 890.000
288.097, 902.000
289.465, 932.000
290.832, 988.000
292.199, 1021.000
293.565, 1114.000
294.931, 1209.000
296.298, 1258.000
297.663, 1359.000
299.029, 1491.000
300.395, 1658.000
301.760, 1800.000
303.125, 2046.000
304.489, 2304.000
305.854, 2679.000
307.218, 3112.000
308.582, 3645.000
309.946, 4426.000
311.309, 5327.000
312.672, 6436.000
314.036, 7479.000
315.398, 8705.000
316.761, 9387.000
318.123, 9448.000
319.485, 9036.000
320.847, 7946.000
322.209, 6751.000
323.570, 5429.000
324.931, 4453.000
326.292, 3658.000
327.653, 2969.000
329.013, 2553.000
330.373, 2185.000
331.733, 1916.000
333.093, 1647.000
334.452, 1486.000
335.811, 1355.000
337.170, 1235.000
338.529, 1196.000
339.888, 1089.000
341.246, 1083.000
342.604, 1043.000
343.962, 1033.000
345.319, 1028.000
346.677, 1034.000
348.034, 1078.000
349.390, 1074.000
350.747, 1088.000
352.103, 1081.000
353.459, 1029.000
354.815, 1049.000
356.171, 1024.000
357.526, 984.000
358.882, 940.000
360.237, 882.000
361.591, 855.000
362.946, 769.000
364.300, 736.000
365.654, 709.000
367.008, 658.000
368.361, 633.000
369.714, 616.000
371.068, 594.000
372.420, 591.000
373.773, 577.000
375.125, 588.000
376.477, 549.000
377.829, 564.000
379.181, 535.000
380.532, 555.000
381.883, 531.000
383.234, 530.000
384.585, 505.000
385.935, 506.000
387.286, 517.000
388.636, 500.000
389.985, 490.000
391.335, 495.000
392.684, 482.000
394.033, 490.000
395.382, 476.000
396.731, 468.000
398.079, 460.000
399.427, 470.000
400.775, 449.000
402.122, 439.000
403.470, 446.000
404.817, 430.000
406.164, 441.000
407.511, 449.000
408.857, 446.000
410.203, 446.000
411.549, 446.000
412.895, 452.000
414.241, 449.000
415.586, 460.000
416.931, 443.000
418.276, 452.000
419.620, 425.000
420.965, 432.000
422.309, 430.000
423.653, 434.000
424.996, 431.000
426.340, 431.000
427.683, 405.000
429.026, 418.000
430.368, 415.000
431.711, 426.000
433.053, 431.000
434.395, 413.000
435.737, 416.000
437.078, 416.000
438.420, 411.000
439.761, 414.000
441.102, 412.000
442.442, 414.000
443.783, 405.000
445.123, 434.000
446.463, 418.000
447.802, 421.000
449.142, 428.000
450.481, 395.000
451.820, 411.000
453.159, 416.000
454.497, 415.000
455.836, 414.000
457.174, 403.000
458.511, 396.000
459.849, 404.000
461.186, 397.000
462.523, 406.000
463.860, 406.000
465.197, 400.000
466.533, 392.000
467.870, 412.000
469.206, 404.000
470.541, 404.000
471.877, 418.000
473.212, 402.000
474.547, 399.000
475.882, 401.000
477.216, 395.000
478.551, 396.000
479.885, 394.000
481.219, 394.000
482.552, 399.000
483.886, 388.000
485.219, 384.000
486.552, 386.000
487.885, 398.000
489.217, 385.000
490.549, 373.000
491.881, 392.000
493.213, 385.000
494.545, 390.000
495.876, 386.000
497.207, 388.000
498.538, 395.000
499.869, 391.000
501.199, 397.000
502.529, 379.000
503.859, 395.000
505.189, 396.000
506.518, 384.000
507.848, 399.000
509.177, 377.000
510.505, 398.000
511.834, 393.000
513.162, 386.000
514.490, 397.000
515.818, 396.000
517.146, 387.000
518.473, 393.000
519.801, 394.000
521.128, 399.000
522.454, 384.000
523.781, 381.000
525.107, 399.000
526.433, 364.000
527.759, 388.000
529.084, 377.000
530.410, 373.000
531.735, 379.000
533.060, 388.000
534.384, 384.000
535.709, 387.000
537.033, 375.000
538.357, 387.000
539.681, 396.000
541.004, 380.000
542.328, 376.000
543.651, 380.000
544.973, 388.000
546.296, 372.000
547.618, 381.000
548.941, 372.000
550.263, 389.000
551.584, 377.000
552.906, 391.000
554.227, 385.000
555.548, 377.000
556.869, 393.000
558.189, 383.000
559.510, 398.000
560.830, 390.000
562.149, 379.000
563.469, 394.000
564.789, 380.000
566.108, 393.000
567.427, 380.000
568.745, 399.000
570.064, 390.000
571.382, 384.000
572.700, 387.000
574.018, 394.000
575.336, 396.000
576.653, 396.000
577.970, 399.000
579.287, 395.000
580.604, 401.000
581.920, 404.000
583.236, 402.000
584.552, 403.000
585.868, 389.000
587.184, 407.000
588.499, 406.000
589.814, 396.000
591.129, 402.000
592.444, 396.000
593.758, 399.000
595.072, 407.000
596.386, 401.000
597.700, 405.000
599.013, 396.000
600.327, 407.000
601.640, 410.000
602.952, 411.000
604.265, 398.000
605.577, 415.000
606.890, 400.000
608.201, 427.000
609.513, 414.000
610.825, 415.000
612.136, 417.000
613.447, 421.000
614.758, 418.000
616.068, 420.000
617.379, 411.000
618.689, 416.000
619.999, 419.000
621.308, 439.000
622.618, 414.000
623.927, 417.000
625.236, 436.000
626.545, 430.000
627.853, 434.000
629.161, 436.000
630.470, 434.000
631.777, 438.000
633.085, 425.000
634.392, 456.000
635.700, 445.000
637.007, 443.000
638.313, 439.000
639.620, 451.000
640.926, 449.000
642.232, 471.000
643.538, 466.000
644.844, 471.000
646.149, 460.000
647.454, 479.000
648.759, 470.000
650.064, 472.000
651.368, 466.000
652.673, 490.000
653.977, 471.000
655.281, 496.000
656.584, 507.000
657.888, 492.000
659.191, 490.000
660.494, 502.000
661.796, 510.000
663.099, 510.000
664.401, 524.000
665.703, 511.000
667.005, 526.000
668.306, 516.000
669.608, 554.000
670.909, 559.000
672.210, 556.000
673.511, 538.000
674.811, 557.000
676.111, 558.000
677.411, 573.000
678.711, 544.000
680.011, 551.000
681.310, 563.000
682.609, 574.000
683.908, 585.000
685.207, 586.000
686.505, 590.000
687.803, 585.000
689.101, 585.000
690.399, 605.000
691.697, 597.000
692.994, 618.000
694.291, 611.000
695.588, 626.000
696.885, 642.000
698.181, 652.000
699.478, 668.000
700.774, 679.000
702.069, 663.000
703.365, 693.000
704.660, 679.000
705.956, 706.000
707.250, 714.000
708.545, 710.000
709.840, 755.000
711.134, 759.000
712.428, 769.000
713.722, 807.000
715.015, 812.000
716.309, 857.000
717.602, 866.000
718.895, 915.000
720.187, 929.000
721.480, 1007.000
722.772, 1042.000
724.064, 1078.000
725.356, 1170.000
726.647, 1280.000
727.939, 1359.000
729.230, 1506.000
730.521, 1666.000
731.812, 1845.000
733.102, 2063.000
734.392, 2362.000
735.682, 2737.000
736.972, 3222.000
738.262, 3820.000
739.551, 4405.000
740.840, 4895.000
742.129, 5327.000
743.418, 5342.000
744.707, 5191.000
745.995, 4690.000
747.283, 4124.000
748.571, 3671.000
749.858, 3159.000
751.146, 2870.000
752.433, 2523.000
753.720, 2344.000
755.007, 2221.000
756.293, 2068.000
757.580, 2092.000
758.866, 2017.000
760.151, 2026.000
761.437, 2123.000
762.723, 2167.000
764.008, 2255.000
765.293, 2341.000
766.577, 2250.000
767.862, 2329.000
769.146, 2150.000
770.430, 2067.000
771.714, 1912.000
772.998, 1838.000
774.281, 1786.000
775.565, 1715.000
776.848, 1653.000
778.131, 1645.000
779.413, 1615.000
780.695, 1641.000
781.978, 1644.000
783.260, 1601.000
784.541, 1652.000
785.823, 1675.000
787.104, 1702.000
788.385, 1770.000
789.666, 1848.000
790.946, 1885.000
792.227, 1931.000
793.507, 2040.000
794.787, 2172.000
796.067, 2276.000
797.346, 2402.000
798.626, 2517.000
799.905, 2742.000
801.184, 2913.000
802.462, 3181.000
803.741, 3469.000
805.019, 3742.000
806.297, 4147.000
807.575, 4679.000
808.852, 5018.000
810.130, 5774.000
811.407, 6303.000
812.684, 6928.000
813.960, 7531.000
815.237, 7649.000
816.513, 8083.000
817.789, 7770.000
819.065, 7531.000
820.340, 7158.000
821.616, 6650.000
822.891, 6329.000
824.166, 5836.000
825.441, 5515.000
826.715, 5300.000
827.990, 4892.000
829.264, 4717.000
830.538, 4594.000
831.811, 4466.000
833.085, 4367.000
834.358, 4270.000
835.631, 4235.000
836.904, 4282.000
838.176, 4186.000
839.449, 4342.000
840.721, 4308.000
841.993, 4402.000
843.264, 4535.000
844.536, 4682.000
845.807, 4913.000
847.078, 5046.000
848.349, 5308.000
849.620, 5752.000
850.890, 6026.000
852.160, 6681.000
853.430, 7159.000
854.700, 7944.000
855.970, 9044.000
857.239, 9986.000
858.508, 11740.000
859.777, 13990.000
861.046, 16280.000
862.314, 20640.000
863.582, 25040.000
864.851, 31760.000
866.118, 40100.000
867.386, 47410.000
868.653, 54400.000
869.921, 55800.000
871.188, 51260.000
872.454, 43990.000
873.721, 34740.000
874.987, 27310.000
876.253, 21240.000
877.519, 16740.000
878.785, 13330.000
880.050, 10790.000
881.316, 9104.000
882.581, 7569.000
883.845, 6376.000
885.110, 5716.000
886.374, 4950.000
887.639, 4433.000
888.903, 4002.000
890.166, 3628.000
891.430, 3278.000
892.693, 3031.000
893.956, 2854.000
895.219, 2697.000
896.482, 2522.000
897.744, 2398.000
899.007, 2216.000
900.269, 2116.000
901.531, 2041.000
902.792, 1923.000
904.054, 1875.000
905.315, 1799.000
906.576, 1773.000
907.836, 1728.000
909.097, 1623.000
910.357, 1563.000
911.618, 1527.000
912.877, 1542.000
914.137, 1460.000
915.397, 1419.000
916.656, 1396.000
917.915, 1350.000
919.174, 1308.000
920.432, 1290.000
921.691, 1257.000
922.949, 1200.000
924.207, 1198.000
925.465, 1163.000
926.722, 1136.000
927.980, 1137.000
929.237, 1096.000
930.494, 1094.000
931.751, 1015.000
933.007, 1020.000
934.263, 1033.000
935.519, 1017.000
936.775, 1035.000
938.031, 1013.000
939.286, 1002.000
940.542, 1006.000
941.797, 958.000
943.051, 990.000
944.306, 978.000
945.560, 965.000
946.815, 947.000
948.069, 938.000
949.322, 939.000
950.576, 939.000
951.829, 890.000
953.082, 882.000
954.335, 879.000
955.588, 856.000
956.840, 862.000
958.093, 824.000
959.345, 838.000
960.597, 806.000
961.848, 789.000
963.100, 811.000
964.351, 811.000
965.602, 781.000
966.853, 773.000
968.103, 760.000
969.354, 760.000
970.604, 783.000
971.854, 760.000
973.104, 771.000
974.353, 771.000
975.602, 739.000
976.852, 750.000
978.100, 735.000
979.349, 726.000
980.598, 743.000
981.846, 731.000
983.094, 741.000
984.342, 738.000
985.589, 719.000
986.837, 718.000
988.084, 716.000
989.331, 698.000
990.578, 690.000
991.824, 695.000
993.071, 695.000
994.317, 691.000
995.563, 691.000
996.809, 683.000
998.054, 690.000
999.300, 655.000
1000.545, 679.000
1001.790, 671.000
1003.034, 650.000
1004.279, 669.000
1005.523, 674.000
1006.767, 674.000
1008.011, 660.000
1009.255, 647.000
1010.498, 653.000
1011.741, 637.000
1012.984, 643.000
1014.227, 645.000
1015.470, 643.000
1016.712, 638.000
1017.954, 661.000
1019.196, 654.000
1020.438, 647.000
1021.680, 655.000
1022.921, 644.000
1024.162, 654.000
1025.403, 649.000
1026.644, 639.000
1027.884, 654.000
1029.125, 640.000
1030.365, 641.000
1031.605, 637.000
1032.844, 647.000
1034.084, 640.000
1035.323, 631.000
1036.562, 639.000
1037.801, 647.000
1039.040, 625.000
1040.278, 636.000
1041.516, 634.000
1042.754, 620.000
1043.992, 647.000
1045.230, 622.000
1046.467, 609.000
1047.704, 626.000
1048.941, 618.000
1050.178, 623.000
1051.415, 621.000
1052.651, 601.000
1053.887, 630.000
1055.123, 610.000
1056.359, 614.000
1057.595, 631.000
1058.830, 607.000
1060.065, 596.000
1061.300, 601.000
1062.535, 635.000
1063.769, 616.000
1065.003, 615.000
1066.237, 605.000
1067.471, 626.000
1068.705, 596.000
1069.939, 606.000
1071.172, 618.000
1072.405, 605.000
1073.638, 628.000
1074.870, 593.000
1076.103, 595.000
1077.335, 579.000
1078.567, 598.000
1079.799, 614.000
1081.030, 613.000
1082.262, 601.000
1083.493, 623.000
1084.724, 605.000
1085.955, 600.000
1087.185, 615.000
1088.416, 620.000
1089.646, 622.000
1090.876, 627.000
1092.106, 622.000
1093.335, 617.000
1094.564, 620.000
1095.794, 610.000
1097.023, 621.000
1098.251, 618.000
1099.480, 641.000
1100.708, 619.000
1101.936, 615.000
1103.164, 623.000
1104.392, 602.000
1105.619, 606.000
1106.847, 607.000
1108.074, 623.000
1109.301, 631.000
1110.527, 621.000
1111.754, 622.000
1112.980, 617.000
1114.206, 635.000
1115.432, 640.000
1116.658, 611.000
1117.883, 638.000
1119.108, 624.000
1120.333, 660.000
1121.558, 655.000
1122.783, 636.000
1124.007, 611.000
1125.231, 620.000
1126.455, 634.000
1127.679, 618.000
1128.903, 623.000
1130.126, 599.000
1131.349, 602.000
1132.572, 622.000
1133.795, 622.000
1135.018, 626.000
1136.240, 599.000
1137.462, 599.000
1138.684, 609.000
1139.906, 636.000
1141.128, 615.000
1142.349, 609.000
1143.570, 607.000
1144.791, 631.000
1146.012, 614.000
1147.232, 631.000
1148.453, 644.000
1149.673, 617.000
1150.893, 631.000
1152.112, 647.000
1153.332, 629.000
1154.551, 638.000
1155.770, 631.000
1156.989, 647.000
1158.208, 623.000
1159.427, 652.000
1160.645, 634.000
1161.863, 652.000
1163.081, 631.000
1164.299, 649.000
1165.516, 636.000
1166.733, 662.000
1167.950, 655.000
1169.167, 649.000
1170.384, 658.000
1171.600, 650.000
1172.817, 651.000
1174.033, 639.000
1175.249, 628.000
1176.464, 662.000
1177.680, 653.000
1178.895, 637.000
1180.110, 623.000
1181.325, 641.000
1182.540, 631.000
1183.754, 650.000
1184.968, 610.000
1186.182, 633.000
1187.396, 618.000
1188.610, 615.000
1189.823, 638.000
1191.037, 633.000
1192.250, 628.000
1193.463, 628.000
1194.675, 613.000
1195.888, 614.000
1197.100, 603.000
1198.312, 619.000
1199.524, 621.000
1200.735, 615.000
1201.947, 624.000
1203.158, 622.000
1204.369, 612.000
1205.580, 598.000
1206.790, 631.000
1208.001, 619.000
1209.211, 617.000
1210.421, 615.000
1211.631, 599.000
1212.841, 622.000
1214.050, 615.000
1215.259, 605.000
1216.468, 590.000
1217.677, 592.000
1218.886, 594.000
1220.094, 611.000
1221.302, 613.000
1222.510, 607.000
1223.718, 604.000
1224.926, 613.000
1226.133, 605.000
1227.340, 593.000
1228.547, 610.000
1229.754, 606.000
1230.961, 602.000
1232.167, 605.000
1233.373, 605.000
1234.579, 587.000
1235.785, 604.000
1236.991, 593.000
1238.196, 615.000
1239.401, 599.000
1240.606, 606.000
1241.811, 612.000
1243.016, 596.000
1244.220, 602.000
1245.425, 595.000
1246.629, 608.000
1247.832, 593.000
1249.036, 608.000
1250.239, 594.000
1251.443, 601.000
1252.646, 593.000
1253.848, 598.000
1255.051, 609.000
1256.253, 601.000
1257.456, 599.000
1258.658, 599.000
1259.860, 603.000
1261.061, 594.000
1262.263, 597.000
1263.464, 604.000
1264.665, 592.000
1265.866, 590.000
1267.066, 591.000
1268.267, 589.000
1269.467, 596.000
1270.667, 569.000
1271.867, 607.000
1273.066, 598.000
1274.266, 587.000
1275.465, 594.000
1276.664, 593.000
1277.863, 604.000
1279.062, 589.000
1280.260, 595.000
1281.458, 594.000
1282.656, 576.000
1283.854, 577.000
1285.052, 598.000
1286.249, 599.000
1287.446, 582.000
1288.644, 572.000
1289.840, 605.000
1291.037, 601.000
1292.234, 602.000
1293.430, 607.000
1294.626, 607.000
1295.822, 601.000
1297.017, 623.000
1298.213, 601.000
1299.408, 604.000
1300.603, 609.000
1301.798, 603.000
1302.993, 613.000
1304.187, 617.000
1305.382, 612.000
1306.576, 610.000
1307.770, 610.000
1308.963, 607.000
1310.157, 614.000
1311.350, 596.000
1312.543, 609.000
1313.736, 611.000
1314.929, 596.000
1316.121, 612.000
1317.314, 620.000
1318.506, 633.000
1319.698, 618.000
1320.889, 620.000
1322.081, 615.000
1323.272, 621.000
1324.463, 635.000
1325.654, 626.000
1326.845, 634.000
1328.036, 623.000
1329.226, 614.000
1330.416, 638.000
1331.606, 626.000
1332.796, 618.000
1333.985, 617.000
1335.175, 636.000
1336.364, 644.000
1337.553, 623.000
1338.742, 644.000
1339.930, 638.000
1341.119, 614.000
1342.307, 630.000
1343.495, 625.000
1344.683, 621.000
1345.870, 653.000
1347.058, 631.000
1348.245, 619.000
1349.432, 631.000
1350.619, 630.000
1351.805, 639.000
1352.992, 642.000
1354.178, 646.000
1355.364, 644.000
1356.550, 631.000
1357.736, 652.000
1358.921, 649.000
1360.106, 651.000
1361.291, 650.000
1362.476, 647.000
1363.661, 640.000
1364.845, 650.000
1366.030, 639.000
1367.214, 647.000
1368.398, 638.000
1369.581, 653.000
1370.765, 671.000
1371.948, 658.000
1373.131, 653.000
1374.314, 661.000
1375.497, 661.000
1376.679, 667.000
1377.862, 671.000
1379.044, 654.000
1380.226, 660.000
1381.408, 689.000
1382.589, 671.000
1383.771, 666.000
1384.952, 678.000
1386.133, 683.000
1387.313, 678.000
1388.494, 665.000
1389.674, 673.000
1390.855, 676.000
1392.035, 663.000
1393.214, 686.000
1394.394, 692.000
1395.573, 691.000
1396.753, 693.000
1397.932, 702.000
1399.111, 681.000
1400.289, 678.000
1401.468, 695.000
1402.646, 677.000
1403.824, 710.000
1405.002, 711.000
1406.180, 697.000
1407.357, 704.000
1408.534, 683.000
1409.712, 679.000
1410.888, 714.000
1412.065, 704.000
1413.242, 717.000
1414.418, 714.000
1415.594, 723.000
1416.770, 734.000
1417.946, 699.000
1419.121, 730.000
1420.297, 713.000
1421.472, 722.000
1422.647, 715.000
1423.822, 724.000
1424.996, 705.000
1426.171, 719.000
1427.345, 741.000
1428.519, 759.000
1429.693, 737.000
1430.866, 745.000
1432.040, 729.000
1433.213, 744.000
1434.386, 732.000
1435.559, 736.000
1436.732, 744.000
1437.904, 744.000
1439.076, 738.000
1440.249, 741.000
1441.420, 748.000
1442.592, 750.000
1443.764, 764.000
1444.935, 762.000
1446.106, 767.000
1447.277, 771.000
1448.448, 745.000
1449.618, 760.000
1450.789, 763.000
1451.959, 757.000
1453.129, 758.000
1454.299, 760.000
1455.468, 756.000
1456.638, 775.000
1457.807, 760.000
1458.976, 785.000
1460.145, 782.000
1461.313, 781.000
1462.482, 800.000
1463.650, 756.000
1464.818, 787.000
1465.986, 789.000
1467.154, 789.000
1468.321, 804.000
1469.489, 790.000
1470.656, 790.000
1471.823, 814.000
1472.989, 797.000
1474.156, 806.000
1475.322, 809.000
1476.488, 814.000
1477.654, 818.000
1478.820, 809.000
1479.986, 832.000
1481.151, 834.000
1482.316, 861.000
1483.481, 812.000
1484.646, 835.000
1485.811, 830.000
1486.975, 817.000
1488.140, 867.000
1489.304, 836.000
1490.467, 809.000
1491.631, 872.000
1492.795, 828.000
1493.958, 854.000
1495.121, 858.000
1496.284, 850.000
1497.447, 905.000
##END=



