##NAMES=Yoshimuraite
##RRUFFID=R050266
##IDEAL CHEMISTRY=Ba_4_Mn^2+^_4_Ti^4+^_2_(Si_2_O_7_)_2_(PO_4_)_2_O_2_(OH)_2_
##LOCALITY=Taguchi mine, Shidara, Kitashidara-Gun, Aichi Prefecture, Japan
##OWNER=RRUFF
##SOURCE=Marcus Origlieri
##DESCRIPTION=Brown tabular crystals associated with katophorite, R050633.
##STATUS=The identification of this mineral is confirmed by single-crystal X-ray diffraction and chemical analysis.
##URL=rruff.info/R050266
##MEASURED CHEMISTRY=(Ba_1.82_Sr_0.18_)_Σ=2_(Ti_0.78_Fe^3+^_0.22_)_Σ=1_(Mn^2+^_1.62_Fe^2+^_0.38_)_Σ=2_O(Si_2.00_O_7_)((P_0.59_S_0.41_)_Σ=1_O_4_)((OH)_0.81_O_0.19_)_Σ=1_; OH estimated by charge balance
88.81100, 16112.00
90.05000, 16614.00
91.28900, 17461.00
92.52700, 17804.00
93.76600, 18400.00
95.00400, 18841.00
96.24200, 19374.00
97.47900, 19628.00
98.71700, 20057.00
99.95500, 20066.00
101.1920, 20076.00
102.4290, 20288.00
103.6660, 20549.00
104.9030, 21056.00
106.1400, 21768.00
107.3760, 21889.00
108.6130, 21932.61
109.8490, 22374.00
111.0850, 21463.00
112.3210, 20927.00
113.5570, 20477.00
114.7920, 20633.00
116.0270, 20495.00
117.2630, 20109.00
118.4980, 19762.00
119.7330, 19402.00
120.9670, 19350.00
122.2020, 18892.00
123.4360, 18741.84
124.6710, 18793.00
125.9050, 18413.00
127.1390, 18399.00
128.3730, 18447.00
129.6060, 18366.00
130.8400, 18539.00
132.0730, 18412.00
133.3060, 18260.00
134.5390, 18208.00
135.7720, 18306.00
137.0040, 18591.00
138.2370, 18626.00
139.4690, 18719.00
140.7010, 18631.00
141.9330, 18614.00
143.1650, 18815.00
144.3970, 18790.00
145.6280, 18845.00
146.8600, 18987.00
148.0910, 19045.00
149.3220, 19182.00
150.5530, 19233.00
151.7830, 19235.00
153.0140, 19467.00
154.2440, 19473.00
155.4740, 19356.00
156.7040, 19375.00
157.9340, 19535.00
159.1640, 19662.00
160.3940, 19735.00
161.6230, 19909.00
162.8520, 19935.00
164.0810, 20020.00
165.3100, 20051.00
166.5390, 20145.00
167.7670, 19978.00
168.9960, 20155.00
170.2240, 20094.00
171.4520, 20248.00
172.6800, 20163.00
173.9080, 20132.00
175.1350, 20263.00
176.3630, 20287.00
177.5900, 20526.00
178.8170, 20551.00
180.0440, 20555.00
181.2710, 20757.00
182.4980, 20863.00
183.7240, 20834.00
184.9500, 20819.00
186.1760, 20988.00
187.4020, 20975.00
188.6280, 21225.00
189.8540, 21338.00
191.0790, 21441.00
192.3050, 21352.00
193.5300, 21424.00
194.7550, 21464.00
195.9800, 21585.00
197.2040, 21495.00
198.4290, 21537.00
199.6530, 21675.00
200.8770, 21554.00
202.1010, 21776.00
203.3250, 21523.00
204.5490, 20965.00
205.7720, 20617.00
206.9960, 20576.00
208.2190, 20544.00
209.4420, 20708.00
210.6650, 20661.00
211.8880, 21018.00
213.1100, 21123.00
214.3320, 21214.00
215.5550, 21392.00
216.7770, 21591.00
217.9990, 21759.72
219.2200, 22044.00
220.4420, 22211.00
221.6630, 22505.00
222.8850, 22829.48
224.1060, 23018.00
225.3270, 23595.00
226.5470, 23931.00
227.7680, 24256.00
228.9880, 24606.00
230.2090, 25169.00
231.4290, 25532.00
232.6490, 25985.00
233.8690, 26180.00
235.0880, 26283.00
236.3080, 26393.00
237.5270, 26515.00
238.7460, 26627.00
239.9650, 26288.00
241.1840, 26276.00
242.4020, 26139.00
243.6210, 25782.00
244.8390, 25754.12
246.0570, 25457.00
247.2750, 25414.00
248.4930, 25349.00
249.7110, 25044.00
250.9280, 24905.00
252.1460, 24583.00
253.3630, 24452.00
254.5800, 24210.00
255.7970, 24181.00
257.0130, 24022.00
258.2300, 24046.00
259.4460, 24308.00
260.6630, 24319.00
261.8790, 23956.00
263.0940, 23661.00
264.3100, 23567.00
265.5260, 23795.00
266.7410, 23931.00
267.9560, 23498.00
269.1710, 23883.00
270.3860, 23854.00
271.6010, 23959.00
272.8160, 24304.00
274.0300, 24411.00
275.2440, 24292.00
276.4580, 24886.00
277.6720, 24749.00
278.8860, 24686.00
280.1000, 24891.00
281.3130, 24777.00
282.5260, 24677.00
283.7390, 24458.00
284.9520, 24481.00
286.1650, 24159.00
287.3780, 23835.00
288.5900, 23919.00
289.8030, 23851.00
291.0150, 23675.00
292.2270, 23512.00
293.4380, 23379.00
294.6500, 23217.00
295.8620, 23199.63
297.0730, 23231.00
298.2840, 23196.00
299.4950, 23285.00
300.7060, 23298.00
301.9170, 23187.00
303.1270, 23200.00
304.3370, 23295.00
305.5480, 23321.00
306.7580, 23434.56
307.9670, 23175.35
309.1770, 23556.16
310.3870, 23802.15
311.5960, 23920.52
312.8050, 23529.24
314.0140, 23796.07
315.2230, 23799.15
316.4320, 23791.42
317.6400, 24150.81
318.8490, 23833.66
320.0570, 24187.23
321.2650, 24273.03
322.4730, 24481.38
323.6810, 24424.37
324.8880, 24578.00
326.0960, 24617.00
327.3030, 24710.00
328.5100, 24796.00
329.7170, 24876.40
330.9240, 24928.55
332.1300, 25057.00
333.3370, 25051.00
334.5430, 25116.00
335.7490, 25255.05
336.9550, 25411.00
338.1610, 25453.00
339.3660, 25449.00
340.5720, 25590.00
341.7770, 25545.00
342.9820, 25244.00
344.1870, 25564.00
345.3920, 25410.00
346.5970, 25209.00
347.8010, 25291.00
349.0050, 25142.00
350.2100, 24871.00
351.4140, 24993.00
352.6170, 24878.00
353.8210, 24885.00
355.0250, 24847.00
356.2280, 24739.00
357.4310, 24985.00
358.6340, 25168.00
359.8370, 25186.00
361.0400, 25090.00
362.2420, 25398.00
363.4440, 25449.00
364.6470, 25578.00
365.8490, 25713.00
367.0510, 25701.00
368.2520, 25836.00
369.4540, 26002.00
370.6550, 26093.00
371.8560, 26253.00
373.0570, 26374.43
374.2580, 26495.51
375.4590, 26662.00
376.6600, 26756.00
377.8600, 26974.00
379.0600, 27135.00
380.2600, 27393.00
381.4600, 27694.00
382.6600, 28238.00
383.8600, 28468.00
385.0590, 29183.00
386.2580, 29638.00
387.4570, 30224.00
388.6560, 30973.00
389.8550, 31648.00
391.0540, 32602.00
392.2520, 33242.00
393.4500, 34292.00
394.6480, 35115.00
395.8460, 35761.00
397.0440, 36464.00
398.2420, 37001.00
399.4390, 37689.00
400.6370, 37761.00
401.8340, 38053.00
403.0310, 37813.00
404.2270, 37822.00
405.4240, 37471.00
406.6210, 37580.00
407.8170, 37147.00
409.0130, 36456.00
410.2090, 36173.00
411.4050, 35451.00
412.6010, 34762.00
413.7960, 34318.00
414.9910, 33597.00
416.1870, 32672.00
417.3820, 32186.00
418.5770, 31223.00
419.7710, 30699.00
420.9660, 30083.00
422.1600, 29606.00
423.3540, 29036.00
424.5480, 28653.00
425.7420, 28232.00
426.9360, 27977.00
428.1290, 27719.00
429.3230, 27482.00
430.5160, 27321.03
431.7090, 27006.00
432.9020, 27087.00
434.0950, 27080.00
435.2870, 27081.00
436.4800, 26952.00
437.6720, 26741.00
438.8640, 26954.00
440.0560, 26931.00
441.2480, 26957.00
442.4390, 27134.00
443.6310, 26908.00
444.8220, 27190.00
446.0130, 27389.00
447.2040, 27042.00
448.3950, 27562.00
449.5860, 27558.00
450.7760, 27440.00
451.9660, 27500.00
453.1560, 27578.00
454.3460, 27383.00
455.5360, 27659.00
456.7260, 27393.00
457.9150, 27575.00
459.1050, 27574.00
460.2940, 27301.00
461.4830, 27701.00
462.6720, 27118.00
463.8600, 27630.00
465.0490, 27401.00
466.2370, 27571.00
467.4250, 27722.00
468.6130, 27510.00
469.8010, 27759.00
470.9890, 27939.00
472.1760, 27767.00
473.3640, 27698.00
474.5510, 27743.00
475.7380, 27376.00
476.9250, 27489.00
478.1110, 26934.00
479.2980, 26517.00
480.4840, 26322.00
481.6710, 26152.00
482.8570, 25969.00
484.0420, 25910.00
485.2280, 25532.00
486.4140, 25608.00
487.5990, 25700.00
488.7840, 25414.00
489.9690, 25228.00
491.1540, 25372.00
492.3390, 25298.00
493.5240, 25003.00
494.7080, 25337.00
495.8920, 25411.00
497.0760, 25233.00
498.2600, 25112.00
499.4440, 25416.00
500.6280, 25264.00
501.8110, 25292.00
502.9940, 25306.00
504.1780, 25451.00
505.3600, 25132.00
506.5430, 25156.00
507.7260, 25228.00
508.9080, 25157.00
510.0910, 25141.00
511.2730, 25311.00
512.4550, 25128.00
513.6370, 25351.00
514.8180, 25328.00
516.0000, 25235.00
517.1810, 25210.00
518.3620, 25152.00
519.5430, 25213.00
520.7240, 25503.00
521.9050, 25278.00
523.0850, 25437.00
524.2660, 25219.00
525.4460, 25411.00
526.6260, 25537.00
527.8060, 25422.00
528.9850, 25419.00
530.1650, 25668.00
531.3440, 25387.00
532.5230, 25491.00
533.7020, 25570.00
534.8810, 25798.00
536.0600, 25734.00
537.2380, 25977.00
538.4170, 25995.00
539.5950, 25838.00
540.7730, 25910.00
541.9510, 26131.00
543.1290, 26128.00
544.3060, 26342.00
545.4840, 26312.00
546.6610, 26318.00
547.8380, 26424.00
549.0150, 26573.00
550.1920, 26939.00
551.3680, 27011.00
552.5450, 27199.00
553.7210, 27387.00
554.8970, 27562.89
556.0730, 27786.45
557.2490, 28000.00
558.4240, 28306.00
559.6000, 28556.00
560.7750, 28973.00
561.9500, 29269.00
563.1250, 29572.00
564.3000, 29919.00
565.4750, 30389.00
566.6490, 30982.00
567.8230, 31540.00
568.9980, 32421.00
570.1720, 32800.00
571.3450, 33549.00
572.5190, 34816.00
573.6920, 35932.00
574.8660, 37508.00
576.0390, 38683.00
577.2120, 40014.00
578.3850, 41707.00
579.5570, 43361.00
580.7300, 44979.00
581.9020, 46460.00
583.0740, 47475.00
584.2470, 47488.00
585.4180, 47435.00
586.5900, 46679.00
587.7620, 45502.00
588.9330, 44115.00
590.1040, 42913.00
591.2750, 41303.00
592.4460, 40280.00
593.6170, 38937.00
594.7870, 38165.00
595.9580, 37401.00
597.1280, 36878.00
598.2980, 36098.00
599.4680, 36004.00
600.6380, 35592.00
601.8070, 34924.00
602.9770, 34265.00
604.1460, 33919.00
605.3150, 33387.00
606.4840, 32805.00
607.6530, 32656.00
608.8210, 32486.00
609.9900, 32239.00
611.1580, 32355.00
612.3260, 32250.00
613.4940, 32309.00
614.6620, 32376.00
615.8290, 32470.00
616.9970, 32524.00
618.1640, 32579.00
619.3310, 32731.00
620.4980, 32770.00
621.6650, 32906.00
622.8320, 32778.00
623.9980, 33182.00
625.1640, 33207.00
626.3310, 33221.00
627.4970, 33686.00
628.6620, 33775.00
629.8280, 34051.00
630.9940, 34369.00
632.1590, 34926.00
633.3240, 35509.00
634.4890, 35952.00
635.6540, 36512.00
636.8190, 37205.00
637.9830, 38015.00
639.1470, 38529.00
640.3120, 39085.00
641.4760, 39540.00
642.6390, 39410.00
643.8030, 39097.00
644.9670, 39289.00
646.1300, 38795.00
647.2930, 38599.00
648.4560, 38408.00
649.6190, 38231.00
650.7820, 38405.00
651.9440, 38022.00
653.1070, 38150.00
654.2690, 38315.00
655.4310, 38137.00
656.5930, 38015.00
657.7550, 38213.00
658.9160, 38214.00
660.0780, 38591.00
661.2390, 38940.08
662.4000, 39183.00
663.5610, 39766.00
664.7220, 40243.00
665.8820, 40427.00
667.0430, 40962.00
668.2030, 41120.00
669.3630, 41224.00
670.5230, 41316.00
671.6830, 41129.00
672.8430, 40323.00
674.0020, 39571.00
675.1610, 38918.00
676.3200, 37973.00
677.4790, 37429.00
678.6380, 36494.00
679.7970, 35735.00
680.9550, 35378.00
682.1140, 34759.00
683.2720, 34479.00
684.4300, 34044.00
685.5880, 33625.00
686.7450, 33537.00
687.9030, 33017.00
689.0600, 32972.00
690.2170, 32932.00
691.3740, 32768.00
692.5310, 32612.00
693.6880, 32715.00
694.8440, 32377.00
696.0010, 32289.00
697.1570, 32208.00
698.3130, 32367.00
699.4690, 32327.00
700.6250, 32549.00
701.7800, 32371.00
702.9350, 32432.00
704.0910, 32448.00
705.2460, 32396.00
706.4010, 32334.00
707.5550, 32792.00
708.7100, 32568.00
709.8640, 32549.00
711.0190, 32318.00
712.1730, 32107.00
713.3270, 32230.00
714.4800, 32021.00
715.6340, 32175.00
716.7870, 31919.00
717.9410, 32176.00
719.0940, 32127.00
720.2470, 32012.00
721.3990, 31867.00
722.5520, 31849.75
723.7040, 31798.34
724.8570, 31840.00
726.0090, 31828.00
727.1610, 31967.00
728.3130, 32067.00
729.4640, 31919.00
730.6160, 32042.00
731.7670, 32315.00
732.9180, 32040.00
734.0690, 31993.00
735.2200, 32171.00
736.3710, 32096.00
737.5210, 32004.00
738.6710, 32437.00
739.8210, 32370.00
740.9710, 32388.00
742.1210, 32428.00
743.2710, 32433.00
744.4200, 32547.00
745.5700, 32593.77
746.7190, 32677.00
747.8680, 32831.00
749.0170, 33092.00
750.1660, 33388.00
751.3140, 33347.00
752.4620, 33353.00
753.6110, 33537.00
754.7590, 33764.00
755.9070, 33962.00
757.0540, 34232.50
758.2020, 34587.00
759.3490, 34809.00
760.4960, 35063.00
761.6440, 35386.00
762.7900, 35570.00
763.9370, 35992.00
765.0840, 36268.00
766.2300, 36611.00
767.3760, 37335.00
768.5220, 37586.00
769.6680, 38127.00
770.8140, 39010.00
771.9600, 39438.00
773.1050, 40247.00
774.2500, 40611.00
775.3960, 41679.00
776.5400, 42273.00
777.6850, 43199.00
778.8300, 43695.00
779.9740, 44467.00
781.1190, 45229.00
782.2630, 46097.00
783.4070, 46475.00
784.5500, 47419.00
785.6940, 47605.00
786.8380, 48170.00
787.9810, 48494.00
789.1240, 48912.00
790.2670, 48766.00
791.4100, 49160.00
792.5530, 48353.00
793.6950, 48630.00
794.8370, 48274.00
795.9790, 48114.00
797.1220, 47568.00
798.2630, 47411.00
799.4050, 46758.00
800.5470, 46426.00
801.6880, 45876.00
802.8290, 45271.00
803.9700, 44795.27
805.1110, 44120.00
806.2520, 43660.00
807.3920, 43127.00
808.5330, 42526.00
809.6730, 41873.00
810.8130, 41729.00
811.9530, 41087.00
813.0920, 40967.00
814.2320, 40517.00
815.3710, 40316.00
816.5110, 40419.00
817.6500, 40135.00
818.7890, 40167.00
819.9270, 40044.00
821.0660, 40256.00
822.2040, 40617.00
823.3430, 40937.00
824.4810, 41151.00
825.6190, 41434.00
826.7560, 41639.00
827.8940, 42110.00
829.0310, 42206.00
830.1690, 42983.00
831.3060, 43105.00
832.4430, 43678.00
833.5800, 43639.00
834.7160, 44048.00
835.8530, 44684.00
836.9890, 44769.00
838.1250, 45190.00
839.2610, 45481.00
840.3970, 46120.00
841.5330, 46332.00
842.6680, 46697.00
843.8030, 47148.00
844.9390, 47319.95
846.0740, 47457.00
847.2080, 47757.00
848.3430, 47883.00
849.4780, 48042.00
850.6120, 48044.00
851.7460, 48462.00
852.8800, 48882.00
854.0140, 49023.00
855.1480, 49442.00
856.2810, 49972.00
857.4140, 50415.00
858.5480, 50829.00
859.6810, 51860.00
860.8140, 52590.00
861.9460, 53617.00
863.0790, 55196.00
864.2110, 55846.00
865.3430, 56921.00
866.4760, 58008.00
867.6070, 58676.00
868.7390, 59142.00
869.8710, 59975.00
871.0020, 60438.00
872.1330, 60356.00
873.2650, 60494.00
874.3950, 60532.00
875.5260, 60029.00
876.6570, 59427.00
877.7870, 59016.00
878.9170, 58537.00
880.0480, 58043.00
881.1780, 57264.00
882.3070, 56481.00
883.4370, 56081.00
884.5660, 55234.00
885.6960, 54622.00
886.8250, 53916.00
887.9540, 53515.00
889.0830, 53051.00
890.2110, 52568.00
891.3400, 52371.00
892.4680, 52287.00
893.5960, 51892.00
894.7240, 51377.00
895.8520, 51540.00
896.9800, 50836.00
898.1070, 50937.00
899.2340, 50406.00
900.3620, 50458.00
901.4890, 50311.00
902.6150, 50198.00
903.7420, 49417.00
904.8690, 49322.00
905.9950, 48959.00
907.1210, 48547.00
908.2470, 49070.00
909.3730, 48307.00
910.4990, 47834.00
911.6240, 47953.00
912.7500, 47343.00
913.8750, 47347.00
915.0000, 47353.00
916.1250, 47039.00
917.2500, 46852.00
918.3740, 46885.00
919.4990, 46846.00
920.6230, 46929.00
921.7470, 47206.00
922.8710, 47080.00
923.9950, 47284.00
925.1180, 47663.00
926.2420, 47976.00
927.3650, 48786.00
928.4880, 49793.00
929.6110, 50535.00
930.7340, 51626.00
931.8560, 52673.00
932.9790, 53583.00
934.1010, 54244.00
935.2230, 54607.00
936.3450, 54399.00
937.4670, 53628.00
938.5890, 52805.00
939.7100, 51522.00
940.8310, 50440.00
941.9530, 49172.00
943.0740, 47891.00
944.1940, 47350.00
945.3150, 46591.00
946.4360, 46079.00
947.5560, 45729.00
948.6760, 45094.00
949.7960, 44653.00
950.9160, 44558.00
952.0360, 43588.00
953.1550, 43364.00
954.2740, 43072.00
955.3940, 42455.00
956.5130, 42480.00
957.6320, 42212.00
958.7500, 42038.00
959.8690, 41953.00
960.9870, 42001.00
962.1050, 41523.00
963.2230, 41522.00
964.3410, 41287.00
965.4590, 41082.00
966.5770, 40966.00
967.6940, 41132.00
968.8110, 41001.00
969.9280, 40996.00
971.0450, 40803.00
972.1620, 41010.00
973.2790, 41084.00
974.3950, 41298.00
975.5110, 41292.00
976.6270, 41457.00
977.7430, 41524.00
978.8590, 41712.00
979.9750, 42361.00
981.0900, 42711.00
982.2050, 43443.00
983.3210, 44200.00
984.4350, 45304.00
985.5500, 47037.00
986.6650, 49001.00
987.7790, 50947.00
988.8940, 52835.00
990.0080, 55113.00
991.1220, 56510.00
992.2360, 57225.00
993.3490, 56960.00
994.4630, 55142.00
995.5760, 52860.00
996.6890, 50561.00
997.8020, 48054.00
998.9150, 46578.00
1000.028, 45333.00
1001.140, 44431.00
1002.253, 43983.00
1003.365, 43855.00
1004.477, 43769.00
1005.589, 43575.00
1006.701, 43560.00
1007.812, 43436.00
1008.923, 43493.00
1010.035, 43626.00
1011.146, 43872.00
1012.257, 43983.00
1013.367, 44209.00
1014.478, 43986.00
1015.588, 44232.00
1016.699, 44176.00
1017.809, 44529.00
1018.919, 44610.00
1020.028, 44480.00
1021.138, 44532.00
1022.247, 44482.00
1023.357, 44539.00
1024.466, 44617.00
1025.575, 44311.00
1026.683, 44262.00
1027.792, 43974.00
1028.900, 43829.46
1030.009, 43911.00
1031.117, 43514.00
1032.225, 43587.00
1033.333, 43456.00
1034.440, 43136.00
1035.548, 43374.00
1036.655, 43335.00
1037.762, 43184.00
1038.869, 43377.00
1039.976, 43248.00
1041.083, 43051.00
1042.189, 43303.00
1043.296, 43231.00
1044.402, 43059.00
1045.508, 43414.00
1046.614, 43318.00
1047.719, 43355.00
1048.825, 43575.00
1049.930, 44090.00
1051.035, 44249.00
1052.140, 44382.00
1053.245, 44629.00
1054.350, 44962.00
1055.454, 45309.00
1056.559, 45722.29
1057.663, 46449.00
1058.767, 46772.00
1059.871, 47525.00
1060.975, 48364.00
1062.078, 48916.00
1063.182, 49388.00
1064.285, 49616.00
1065.388, 49016.00
1066.491, 48640.00
1067.594, 47975.00
1068.696, 47573.00
1069.799, 46450.00
1070.901, 45319.00
1072.003, 44998.00
1073.105, 43838.00
1074.207, 43909.00
1075.309, 43610.00
1076.410, 43248.00
1077.511, 43247.00
1078.612, 43375.00
1079.713, 43225.00
1080.814, 43237.00
1081.915, 43234.41
1083.015, 43346.00
1084.116, 43265.00
1085.216, 43094.00
1086.316, 43233.00
1087.416, 43552.00
1088.515, 43184.00
1089.615, 43482.00
1090.714, 43247.00
1091.813, 43168.00
1092.912, 43258.00
1094.011, 43479.00
1095.110, 43688.00
1096.208, 43439.00
1097.307, 43723.00
1098.405, 43534.00
1099.503, 43769.00
1100.601, 43816.00
1101.699, 43591.00
1102.796, 43640.00
1103.894, 43716.00
1104.991, 43821.00
1106.088, 43816.00
1107.185, 44067.00
1108.282, 44181.00
1109.378, 44086.00
1110.475, 44171.00
1111.571, 44390.00
1112.667, 44095.00
1113.763, 44370.00
1114.859, 44322.00
1115.954, 44454.00
1117.050, 44725.00
1118.145, 44554.00
1119.240, 44860.00
1120.335, 44780.34
1121.430, 44684.00
1122.524, 44691.00
1123.619, 44775.00
1124.713, 44716.00
1125.807, 44721.00
1126.901, 44805.00
1127.995, 44563.00
1129.089, 44935.00
1130.182, 44740.00
1131.276, 45026.00
1132.369, 45157.00
1133.462, 45221.00
1134.555, 45272.00
1135.647, 44805.00
1136.740, 45092.00
1137.832, 44887.00
1138.924, 44811.00
1140.017, 44947.00
1141.108, 45110.00
1142.200, 44849.00
1143.292, 45118.00
1144.383, 45176.00
1145.474, 45361.00
1146.565, 45664.00
1147.656, 45692.88
1148.747, 45562.00
1149.838, 45852.00
1150.928, 45937.00
1152.018, 45949.00
1153.108, 46285.00
1154.198, 46318.86
1155.288, 46334.00
1156.378, 46557.00
1157.467, 46621.00
1158.556, 46678.00
1159.645, 46831.00
1160.734, 46904.00
1161.823, 46734.00
1162.912, 46695.00
1164.000, 46734.00
1165.089, 46669.00
1166.177, 46777.00
1167.265, 46814.00
1168.352, 46740.00
1169.440, 47045.00
1170.528, 46541.00
1171.615, 46582.00
1172.702, 46776.00
1173.789, 46588.00
1174.876, 46620.00
1175.963, 46316.00
1177.049, 46880.00
1178.135, 46829.00
1179.222, 46916.00
1180.308, 46822.00
1181.394, 46751.00
1182.479, 47063.00
1183.565, 46698.00
1184.650, 46810.00
1185.735, 46880.00
1186.820, 47140.00
1187.905, 47034.00
1188.990, 46821.00
1190.075, 47154.00
1191.159, 46793.00
1192.243, 46968.00
1193.327, 47035.00
1194.411, 46857.00
1195.495, 46846.00
1196.579, 47187.00
1197.662, 47185.41
1198.745, 46974.00
1199.828, 47397.00
1200.911, 47366.00
1201.994, 47112.00
1203.077, 47525.00
1204.159, 47616.00
1205.242, 47396.00
1206.324, 47499.00
1207.406, 47362.00
1208.487, 47182.00
1209.569, 47516.00
1210.651, 47658.00
1211.732, 47686.00
1212.813, 47868.30
1213.894, 47648.00
1214.975, 47877.00
1216.056, 47993.00
1217.136, 47671.00
1218.216, 47781.00
1219.297, 47723.00
1220.377, 47705.00
1221.456, 48172.00
1222.536, 48019.00
1223.616, 48103.00
1224.695, 48002.00
1225.774, 48060.16
1226.853, 48246.00
1227.932, 48147.00
1229.011, 48295.00
1230.090, 48251.00
1231.168, 48538.00
1232.246, 48400.00
1233.324, 48262.00
1234.402, 48495.00
1235.480, 48470.00
1236.558, 48730.00
1237.635, 48853.00
1238.712, 48659.00
1239.789, 48728.00
1240.866, 48871.00
1241.943, 48954.00
1243.020, 49145.00
1244.096, 48894.00
1245.172, 48987.00
1246.249, 49142.00
1247.325, 48900.00
1248.400, 49073.00
1249.476, 49021.00
1250.552, 49022.00
1251.627, 49303.00
1252.702, 49354.00
1253.777, 49374.05
1254.852, 49386.00
1255.927, 49378.00
1257.001, 49661.00
1258.075, 49716.00
1259.150, 49714.00
1260.224, 49624.00
1261.297, 49677.00
1262.371, 49732.00
1263.445, 49639.00
1264.518, 49714.00
1265.591, 49666.00
1266.664, 49868.00
1267.737, 50147.00
1268.810, 50025.00
1269.883, 50233.00
1270.955, 49976.00
1272.027, 50111.00
1273.099, 50403.00
1274.171, 50227.00
1275.243, 50143.00
1276.315, 50200.00
1277.386, 50299.00
1278.457, 50136.00
1279.528, 50660.00
1280.599, 50665.00
1281.670, 50707.00
1282.741, 50594.00
1283.811, 50698.00
1284.882, 50881.00
1285.952, 50958.00
1287.022, 51049.00
1288.091, 51083.79
1289.161, 50977.00
1290.231, 51064.00
1291.300, 51139.00
1292.369, 51096.00
1293.438, 51219.00
1294.507, 51212.00
1295.576, 51409.00
1296.644, 51151.00
1297.712, 51272.00
1298.781, 51641.00
1299.849, 51684.00
1300.917, 51425.00
1301.984, 51209.00
1303.052, 51618.00
1304.119, 51654.00
1305.186, 51597.00
1306.254, 51781.00
1307.320, 51646.00
1308.387, 51715.00
1309.454, 51914.00
1310.520, 51957.00
1311.586, 51840.00
1312.653, 52069.00
1313.718, 51777.00
1314.784, 52307.00
1315.850, 52365.00
1316.915, 52230.00
1317.981, 52234.00
1319.046, 52301.00
1320.111, 52141.00
1321.175, 52170.00
1322.240, 52515.00
1323.305, 52806.00
1324.369, 52801.00
1325.433, 52917.00
1326.497, 52666.00
1327.561, 52577.00
1328.624, 52755.00
1329.688, 52849.00
1330.751, 52642.00
1331.814, 52792.00
1332.877, 52706.00
1333.940, 53008.00
1335.003, 52890.00
1336.066, 53192.00
1337.128, 53269.00
1338.190, 53121.00
1339.252, 53114.00
1340.314, 52880.00
1341.376, 53346.00
1342.437, 53301.00
1343.499, 53249.00
1344.560, 53594.00
1345.621, 53650.00
1346.682, 53714.00
1347.743, 53860.00
1348.803, 53899.00
1349.864, 53916.00
1350.924, 53931.00
1351.984, 53849.00
1353.044, 53860.00
1354.104, 53861.00
1355.163, 53774.00
1356.223, 53593.00
1357.282, 54119.00
1358.341, 54088.00
1359.400, 53993.00
1360.459, 54370.00
1361.518, 54028.00
1362.576, 54519.00
1363.635, 54299.00
1364.693, 54720.00
1365.751, 54520.00
1366.809, 54417.00
1367.866, 54520.00
1368.924, 54411.00
1369.981, 54403.00
1371.038, 54636.00
1372.095, 54689.00
1373.152, 54751.40
1374.209, 54696.00
1375.266, 54886.00
1376.322, 54930.00
1377.378, 55051.00
1378.434, 55150.97
1379.490, 54943.00
1380.546, 55271.00
1381.601, 55182.00
1382.657, 55112.00
1383.712, 55427.00
1384.767, 55145.00
1385.822, 55234.00
1386.877, 55413.00
1387.932, 55515.00
1388.986, 55439.00
1390.040, 55372.00
1391.094, 55623.00
1392.148, 55494.00
1393.202, 55776.00
1394.256, 55703.00
1395.309, 55965.00
1396.363, 55644.00
1397.416, 55802.00
1398.469, 55661.00
1399.522, 55568.00
1400.574, 55997.00
1401.627, 55987.00
1402.679, 55973.00
1403.731, 56501.00
1404.783, 56001.00
1405.835, 56340.00
1406.887, 56278.00
1407.938, 56338.00
1408.990, 56133.00
1410.041, 56203.00
1411.092, 56189.00
1412.143, 56545.00
1413.194, 56633.00
1414.244, 56604.00
1415.295, 56439.00
1416.345, 56458.00
1417.395, 56784.00
1418.445, 56544.00
1419.495, 56823.00
1420.544, 57115.00
1421.594, 57025.00
1422.643, 56801.00
1423.692, 56845.00
1424.741, 56721.00
1425.790, 57058.00
1426.839, 57368.00
1427.887, 57145.00
1428.935, 57095.00
1429.983, 57308.00
1431.031, 56952.00
1432.079, 57743.00
1433.127, 57444.00
1434.174, 57570.00
1435.222, 57476.00
1436.269, 57859.00
1437.316, 57623.00
1438.363, 57805.00
1439.410, 57990.00
1440.456, 57773.00
1441.502, 58102.00
1442.549, 58041.00
1443.595, 57989.00
1444.641, 57892.00
1445.686, 58393.00
1446.732, 58169.00
1447.777, 58250.00
1448.823, 58109.00
1449.868, 58233.00
1450.913, 58259.00
1451.957, 58604.00
1453.002, 58490.00
1454.046, 58528.00
1455.091, 58449.00
1456.135, 58739.00
1457.179, 58645.00
1458.222, 59055.00
1459.266, 58944.00
1460.310, 58553.00
1461.353, 58885.00
1462.396, 58858.00
1463.439, 58655.00
1464.482, 58991.00
1465.525, 58872.00
1466.567, 59041.00
1467.609, 58824.00
1468.652, 59032.00
1469.694, 59318.00
1470.735, 59170.00
1471.777, 59508.00
1472.819, 59341.00
1473.860, 59413.00
1474.901, 59489.00
1475.942, 59509.00
1476.983, 59065.00
1478.024, 59482.00
1479.064, 59425.00
1480.105, 59942.00
1481.145, 59497.00
1482.185, 59937.00
1483.225, 59997.00
1484.265, 60143.00
1485.304, 60042.00
1486.344, 60242.00
1487.383, 59877.00
1488.422, 60086.00
1489.461, 59844.00
1490.500, 60060.00
1491.539, 59909.00
1492.577, 60052.00
1493.615, 60349.00
1494.654, 60580.00
1495.692, 60389.00
1496.729, 60591.00
1497.767, 60752.00
1498.805, 60620.00
1499.842, 60777.00
1500.879, 60716.00
1501.916, 60554.00
1502.953, 60527.00
1503.990, 60684.00
1505.026, 60798.00
1506.063, 60708.00
1507.099, 61260.00
1508.135, 60849.00
1509.171, 61018.00
1510.207, 61299.00
1511.242, 61036.00
1512.278, 61193.00
1513.313, 61474.00
1514.348, 61312.00
1515.383, 60935.00
1516.418, 61403.00
1517.452, 61855.00
1518.487, 61379.00
1519.521, 61297.00
1520.555, 61704.00
1521.589, 61766.00
1522.623, 61518.00
1523.656, 61855.00
1524.690, 61904.00
1525.723, 62105.00
1526.756, 61980.00
1527.789, 61953.00
1528.822, 61807.00
1529.855, 61943.00
1530.887, 62110.00
1531.920, 62367.00
1532.952, 62161.00
1533.984, 62319.74
1535.016, 62398.00
1536.048, 62430.00
1537.079, 62271.00
1538.110, 62527.00
1539.142, 62680.00
1540.173, 62541.00
1541.204, 62755.00
1542.234, 62728.00
1543.265, 62858.00
1544.295, 62532.00
1545.326, 62901.00
1546.356, 63164.00
1547.386, 62850.00
1548.415, 63200.00
1549.445, 63289.00
1550.475, 63315.00
1551.504, 63314.00
##END=



